300.00000,4.14393
302.00000,0.28590
304.00000,-0.05750
306.00000,3.47931
308.00000,9.57762
310.00000,15.03496
312.00000,20.07589
314.00000,25.79671
316.00000,20.67874
318.00000,9.06166
320.00000,6.28480
322.00000,14.77109
324.00000,31.47322
326.00000,51.36243
328.00000,68.42500
330.00000,79.07030
332.00000,86.57625
334.00000,91.01879
336.00000,102.75459
338.00000,137.73198
340.00000,194.34245
342.00000,235.90309
344.00000,265.60065
346.00000,293.68848
348.00000,301.60980
350.00000,263.32916
352.00000,189.30495
354.00000,120.25288
356.00000,90.83758
358.00000,94.24468
360.00000,92.34078
362.00000,92.86158
364.00000,96.30743
366.00000,83.54946
368.00000,81.38541
370.00000,85.81924
372.00000,84.21419
374.00000,71.65540
376.00000,57.30185
378.00000,72.31994
380.00000,81.44125
382.00000,59.01855
384.00000,30.58603
386.00000,15.93152
388.00000,24.44276
390.00000,34.81436
392.00000,26.93993
394.00000,15.10177
396.00000,11.89840
398.00000,31.88788
400.00000,44.48935
402.00000,22.97606
404.00000,41.75927
406.00000,56.37319
408.00000,61.45544
410.00000,81.22563
412.00000,92.59663
414.00000,92.16223
416.00000,97.11327
418.00000,131.04565
420.00000,185.45613
422.00000,199.27690
424.00000,192.31598
426.00000,200.34891
428.00000,237.26366
430.00000,292.84116
432.00000,338.58957
434.00000,363.36478
436.00000,386.87335
438.00000,425.64645
440.00000,447.91254
442.00000,446.49365
444.00000,451.69678
446.00000,461.37195
448.00000,437.46750
450.00000,452.41733
452.00000,446.72998
454.00000,398.68900
456.00000,359.36481
458.00000,306.81799
460.00000,277.99051
462.00000,258.96771
464.00000,225.75479
466.00000,206.91164
468.00000,210.26057
470.00000,206.87442
472.00000,179.35410
474.00000,144.68546
476.00000,129.60165
478.00000,125.58234
480.00000,128.09790
482.00000,135.55763
484.00000,135.50766
486.00000,116.49180
488.00000,88.30647
490.00000,64.64777
492.00000,50.17916
494.00000,43.07801
496.00000,45.11951
498.00000,60.67266
500.00000,68.75226
502.00000,43.98389
504.00000,41.59763
506.00000,40.03225
508.00000,42.05347
510.00000,61.70391
512.00000,40.45906
514.00000,27.18202
516.00000,39.49628
518.00000,54.93842
520.00000,60.88895
522.00000,64.10586
524.00000,59.94569
526.00000,75.78192
528.00000,113.77906
530.00000,94.84042
532.00000,77.85143
534.00000,63.22309
536.00000,54.80186
538.00000,86.53043
540.00000,62.08292
542.00000,44.78217
544.00000,59.84451
546.00000,65.73390
548.00000,74.79748
550.00000,50.23589
552.00000,28.68505
554.00000,35.40942
556.00000,32.29659
558.00000,32.68190
560.00000,41.00890
562.00000,49.29325
564.00000,50.70119
566.00000,50.15818
568.00000,59.84355
570.00000,73.50404
572.00000,76.63463
574.00000,75.44807
576.00000,105.98804
578.00000,127.17793
580.00000,122.72383
582.00000,131.98112
584.00000,178.11897
586.00000,185.11769
588.00000,187.53123
590.00000,216.65221
592.00000,231.10760
594.00000,253.63803
596.00000,286.27209
598.00000,299.70090
600.00000,297.94269
602.00000,334.70285
604.00000,341.88654
606.00000,339.40295
608.00000,343.53851
610.00000,322.15176
612.00000,319.47058
614.00000,308.55099
616.00000,290.46637
618.00000,280.59357
620.00000,251.88728
622.00000,227.18530
624.00000,191.12500
626.00000,142.86763
628.00000,113.14639
630.00000,92.42999
632.00000,84.98798
634.00000,87.90608
636.00000,109.67161
638.00000,171.55055
640.00000,211.10692
642.00000,216.60582
644.00000,200.97917
646.00000,166.64354
648.00000,129.96823
650.00000,120.48044
652.00000,117.37908
654.00000,100.50630
656.00000,104.76730
658.00000,117.94004
660.00000,100.71864
662.00000,109.50117
664.00000,210.66937
666.00000,275.51080
668.00000,391.14389
670.00000,557.66266
672.00000,720.50293
674.00000,964.19708
676.00000,1442.99646
678.00000,2231.37329
680.00000,3278.79761
682.00000,4360.93213
684.00000,5047.57764
686.00000,4937.73535
688.00000,4157.95752
690.00000,3159.67725
692.00000,2272.81519
694.00000,1648.65417
696.00000,1310.08154
698.00000,1140.11377
700.00000,1022.38757
702.00000,1017.06738
704.00000,998.56580
706.00000,907.39404
708.00000,800.91864
710.00000,727.27295
712.00000,625.12384
714.00000,551.52179
716.00000,541.59320
718.00000,543.75305
720.00000,530.56671
722.00000,536.36334
724.00000,568.78833
726.00000,656.78961
728.00000,860.62695
730.00000,1113.01453
732.00000,1447.51514
734.00000,1976.54028
736.00000,2720.20508
738.00000,3445.12280
740.00000,3806.81372
742.00000,3552.15576
744.00000,2826.58130
746.00000,2116.14697
748.00000,1565.51355
750.00000,1223.28955
752.00000,1014.79852
754.00000,848.05298
756.00000,785.64520
758.00000,757.52783
760.00000,771.37762
762.00000,861.52112
764.00000,999.22565
766.00000,1198.02161
768.00000,1498.78442
770.00000,1986.74744
772.00000,2626.86230
774.00000,3112.35303
776.00000,3282.46021
778.00000,3045.81616
780.00000,2467.15063
782.00000,1817.36084
784.00000,1365.32593
786.00000,1117.78296
788.00000,947.76422
790.00000,772.22113
792.00000,630.11523
794.00000,563.21490
796.00000,550.72797
798.00000,533.88446
800.00000,480.36151
802.00000,430.10107
804.00000,398.80237
806.00000,403.74240
808.00000,451.84427
810.00000,518.32916
812.00000,639.06769
814.00000,746.41376
816.00000,794.00159
818.00000,810.28448
820.00000,712.93665
822.00000,542.26050
824.00000,408.13419
826.00000,351.52966
828.00000,292.21310
830.00000,235.41364
832.00000,207.44997
834.00000,202.27531
836.00000,188.18535
838.00000,163.50636
840.00000,141.27020
842.00000,125.12466
844.00000,130.82504
846.00000,176.52939
848.00000,141.70293
850.00000,67.82367
852.00000,67.13107
854.00000,129.28918
856.00000,107.41267
858.00000,79.03793
860.00000,78.24269
862.00000,70.12299
864.00000,82.26670
866.00000,70.19174
868.00000,52.74234
870.00000,60.73967
872.00000,76.29219
874.00000,71.01422
876.00000,53.16969
878.00000,56.52709
880.00000,81.77747
882.00000,84.84866
884.00000,108.39182
886.00000,94.00951
888.00000,58.04613
890.00000,99.43042
892.00000,123.37399
894.00000,94.06574
896.00000,61.72132
898.00000,63.57394
900.00000,63.17848
902.00000,79.58189
904.00000,98.55632
906.00000,76.66087
908.00000,34.87992
910.00000,100.17278
912.00000,104.65027
914.00000,52.88293
916.00000,63.91484
918.00000,85.50044
920.00000,73.35950
922.00000,74.24745
924.00000,117.22398
926.00000,144.15633
928.00000,97.75866
930.00000,135.29745
932.00000,195.28598
934.00000,167.39297
936.00000,164.51335
938.00000,145.06932
940.00000,158.20023
942.00000,164.43016
944.00000,103.44743
946.00000,178.55663
948.00000,254.06868
950.00000,302.88574
952.00000,368.14590
954.00000,384.68631
956.00000,440.59305
958.00000,455.91522
960.00000,396.26855
962.00000,318.99274
964.00000,187.66673
966.00000,176.16359
968.00000,208.72394
970.00000,168.13020
972.00000,175.97928
974.00000,204.15459
976.00000,244.60947
978.00000,316.01111
980.00000,373.97464
982.00000,298.25696
984.00000,239.12613
986.00000,213.52286
988.00000,175.70332
990.00000,169.80086
992.00000,121.48827
994.00000,191.71532
996.00000,364.94910
998.00000,457.41187
1000.00000,535.18286
1002.00000,546.48749
1004.00000,492.24283
1006.00000,405.21875
1008.00000,299.85468
1010.00000,271.59540
1012.00000,246.51648
1014.00000,201.26241
1016.00000,190.04854
1018.00000,166.31178
1020.00000,144.05717
1022.00000,165.65784
1024.00000,201.43698
1026.00000,183.01718
1028.00000,215.42227
1030.00000,232.31073
1032.00000,180.06021
1034.00000,155.45747
1036.00000,249.75336
1038.00000,133.17389
1040.00000,25.62851
1042.00000,119.86656
1044.00000,109.29163
1046.00000,68.22189
1048.00000,90.88365
1050.00000,118.82901
1052.00000,82.36048
1054.00000,95.72366
1056.00000,171.61646
1058.00000,194.65176
1060.00000,168.27344
1062.00000,235.29108
1064.00000,283.13644
1066.00000,274.08212
1068.00000,270.95850
1070.00000,305.82071
1072.00000,307.78714
1074.00000,352.46298
1076.00000,463.11426
1078.00000,612.11383
1080.00000,760.48529
1082.00000,820.30743
1084.00000,797.57587
1086.00000,694.61786
1088.00000,534.57690
1090.00000,423.34940
1092.00000,342.46756
1094.00000,295.37222
1096.00000,272.80115
1098.00000,239.17572
1100.00000,224.10858
1102.00000,115.23361
1104.00000,63.65818
1106.00000,174.13562
1108.00000,105.06706
1110.00000,56.93604
1112.00000,104.85634
1114.00000,135.05931
1116.00000,77.18546
1118.00000,35.40981
1120.00000,45.78476
1122.00000,73.02145
1124.00000,87.18778
1126.00000,109.04174
1128.00000,132.34547
1130.00000,147.11188
1132.00000,159.47542
1134.00000,197.22795
1136.00000,280.86554
1138.00000,313.70508
1140.00000,357.89066
1142.00000,438.79572
1144.00000,361.75671
1146.00000,373.92065
1148.00000,397.94318
1150.00000,307.24637
1152.00000,222.69107
1154.00000,264.21997
1156.00000,303.21927
1158.00000,274.33304
1160.00000,238.88477
1162.00000,243.14644
1164.00000,264.37842
1166.00000,272.86697
1168.00000,274.59625
1170.00000,306.52191
1172.00000,380.17505
1174.00000,423.54544
1176.00000,491.69510
1178.00000,629.19458
1180.00000,721.85449
1182.00000,842.31104
1184.00000,977.30774
1186.00000,1094.34924
1188.00000,1184.40808
1190.00000,1188.80493
1192.00000,1208.59009
1194.00000,1317.36279
1196.00000,1477.76318
1198.00000,1629.48865
1200.00000,1859.29468
1202.00000,2106.49487
1204.00000,2395.20581
1206.00000,2778.06909
1208.00000,3036.29321
1210.00000,3453.02051
1212.00000,3685.11450
1214.00000,3393.09766
1216.00000,3025.10522
1218.00000,2546.23120
1220.00000,2028.29187
1222.00000,1571.87317
1224.00000,1216.68799
1226.00000,1032.48413
1228.00000,891.15936
1230.00000,715.31256
1232.00000,572.26770
1234.00000,541.97772
1236.00000,484.63220
1238.00000,464.84259
1240.00000,411.01645
1242.00000,272.48276
1244.00000,429.22873
1246.00000,360.94135
1248.00000,292.49380
1250.00000,468.29654
1252.00000,380.76767
1254.00000,446.24036
1256.00000,487.75876
1258.00000,409.93704
1260.00000,463.05249
1262.00000,604.14783
1264.00000,645.89679
1266.00000,734.01794
1268.00000,950.85028
1270.00000,1085.16516
1272.00000,1377.31787
1274.00000,1803.67578
1276.00000,2308.10889
1278.00000,2911.49951
1280.00000,3488.16235
1282.00000,3797.10693
1284.00000,3925.12354
1286.00000,4057.53271
1288.00000,4182.16113
1290.00000,4259.76660
1292.00000,4056.67920
1294.00000,3595.81250
1296.00000,3066.77271
1298.00000,2422.97607
1300.00000,1985.52283
1302.00000,1681.82849
1304.00000,1363.56775
1306.00000,1155.92651
1308.00000,961.80664
1310.00000,795.03778
1312.00000,703.26068
1314.00000,702.86761
1316.00000,777.49872
1318.00000,765.34442
1320.00000,737.20428
1322.00000,768.61890
1324.00000,828.00354
1326.00000,1147.83862
1328.00000,1470.93164
1330.00000,1914.45532
1332.00000,2693.92236
1334.00000,3320.99121
1336.00000,3956.92163
1338.00000,4374.40283
1340.00000,4268.24805
1342.00000,3785.24023
1344.00000,3232.34375
1346.00000,2667.83691
1348.00000,2157.11768
1350.00000,1745.73987
1352.00000,1336.44592
1354.00000,1185.88208
1356.00000,1167.12964
1358.00000,1105.87183
1360.00000,1084.04492
1362.00000,1030.71399
1364.00000,888.85052
1366.00000,752.33344
1368.00000,723.76312
1370.00000,702.97382
1372.00000,570.59674
1374.00000,447.49127
1376.00000,397.83984
1378.00000,344.67151
1380.00000,418.46725
1382.00000,374.59302
1384.00000,370.28311
1386.00000,581.61108
1388.00000,565.49017
1390.00000,592.16803
1392.00000,617.29419
1394.00000,549.65625
1396.00000,510.25845
1398.00000,418.83447
1400.00000,375.11218
1402.00000,372.69305
1404.00000,331.56812
1406.00000,298.42770
1408.00000,261.09271
1410.00000,223.42764
1412.00000,206.60414
1414.00000,202.76416
1416.00000,164.82599
1418.00000,192.84358
1420.00000,231.06543
1422.00000,212.24651
1424.00000,272.15601
1426.00000,307.95316
1428.00000,260.40750
1430.00000,245.27731
1432.00000,342.80579
1434.00000,302.25803
1436.00000,292.13992
1438.00000,368.01962
1440.00000,415.71826
1442.00000,436.91913
1444.00000,510.19363
1446.00000,573.61780
1448.00000,572.72632
1450.00000,534.64026
1452.00000,448.47275
1454.00000,356.77905
1456.00000,306.04086
1458.00000,299.20557
1460.00000,293.47601
1462.00000,260.17163
1464.00000,230.04086
1466.00000,194.76897
1468.00000,145.40308
1470.00000,188.03453
1472.00000,163.30757
1474.00000,149.12906
1476.00000,210.88333
1478.00000,156.22435
1480.00000,247.99367
1482.00000,277.51923
1484.00000,191.51183
1486.00000,228.01633
1488.00000,223.25557
1490.00000,118.37772
1492.00000,94.16871
1494.00000,227.08313
1496.00000,311.31317
1498.00000,400.93430
1500.00000,549.99719
1502.00000,720.22382
1504.00000,855.72943
1506.00000,975.97418
1508.00000,989.32141
1510.00000,999.25653
1512.00000,1177.77368
1514.00000,1470.58411
1516.00000,1650.43152
1518.00000,2124.63281
1520.00000,2793.41675
1522.00000,3281.18384
1524.00000,4221.51123
1526.00000,5354.45459
1528.00000,6587.08398
1530.00000,8145.25439
1532.00000,10081.75684
1534.00000,12013.41797
1536.00000,13433.75391
1538.00000,13606.74316
1540.00000,12181.44141
1542.00000,10048.74707
1544.00000,8112.58691
1546.00000,6566.06738
1548.00000,5418.74414
1550.00000,4810.75684
1552.00000,4219.12354
1554.00000,3729.05688
1556.00000,3394.01685
1558.00000,3037.69971
1560.00000,2731.76147
1562.00000,2482.89600
1564.00000,2255.40894
1566.00000,2023.47107
1568.00000,1820.56006
1570.00000,1740.61841
1572.00000,1602.50806
1574.00000,1374.55225
1576.00000,1219.18079
1578.00000,1140.69690
1580.00000,1032.38403
1582.00000,887.48138
1584.00000,774.96515
1586.00000,716.59174
1588.00000,634.58356
1590.00000,542.06128
1592.00000,534.54333
1594.00000,558.46924
1596.00000,375.92368
1598.00000,387.04880
1600.00000,342.64847
1602.00000,207.49886
1604.00000,432.13953
1606.00000,301.20166
1608.00000,229.88602
1610.00000,299.48718
1612.00000,201.37665
1614.00000,265.22357
1616.00000,230.62224
1618.00000,194.21751
1620.00000,223.23933
1622.00000,130.66283
1624.00000,204.46217
1626.00000,209.56616
1628.00000,120.91232
1630.00000,134.68571
1632.00000,138.90759
1634.00000,124.61477
1636.00000,138.66444
1638.00000,152.43219
1640.00000,107.80164
1642.00000,126.09139
1644.00000,161.11839
1646.00000,145.38091
1648.00000,113.68536
1650.00000,149.46022
1652.00000,170.08739
1654.00000,168.23050
1656.00000,164.94107
1658.00000,148.38016
1660.00000,149.79143
1662.00000,183.70901
1664.00000,201.92534
1666.00000,169.75305
1668.00000,140.48022
1670.00000,123.81686
1672.00000,145.30588
1674.00000,188.10973
1676.00000,170.00600
1678.00000,62.66281
1680.00000,72.59547
1682.00000,102.31339
1684.00000,48.67421
1686.00000,167.11816
1688.00000,147.06810
1690.00000,138.13339
1692.00000,190.61885
1694.00000,95.66325
1696.00000,153.93013
1698.00000,186.34808
1700.00000,211.03156
1702.00000,289.54605
1704.00000,185.88145
1706.00000,195.31322
1708.00000,213.24275
1710.00000,167.83820
1712.00000,215.07071
1714.00000,222.12912
1716.00000,218.47151
1718.00000,236.16156
1720.00000,249.02570
1722.00000,228.51924
1724.00000,160.87476
1726.00000,127.28970
1728.00000,199.61998
1730.00000,302.73102
1732.00000,243.12964
1734.00000,216.70966
1736.00000,218.03355
1738.00000,165.50273
1740.00000,195.45836
1742.00000,215.03909
1744.00000,171.49356
1746.00000,158.10475
1748.00000,217.46767
1750.00000,133.24396
1752.00000,126.95643
1754.00000,189.23599
1756.00000,164.74857
1758.00000,141.40106
1760.00000,239.50334
1762.00000,181.14650
1764.00000,57.94419
1766.00000,189.92081
1768.00000,196.94829
1770.00000,214.91861
1772.00000,197.63394
1774.00000,89.25890
1776.00000,133.64717
1778.00000,240.17764
1780.00000,191.85474
1782.00000,113.71706
1784.00000,207.88725
1786.00000,155.09244
1788.00000,163.61015
1790.00000,216.71906
1792.00000,207.45255
1794.00000,241.18544
1796.00000,197.18446
1798.00000,177.80884
1800.00000,216.24251
1802.00000,214.28423
1804.00000,205.57031
1806.00000,188.69804
1808.00000,164.12004
1810.00000,152.72282
1812.00000,165.01390
1814.00000,155.11133
1816.00000,143.50632
1818.00000,133.60039
1820.00000,95.12645
1822.00000,42.54455
1824.00000,25.58142
1826.00000,40.82936
1828.00000,89.31985
1830.00000,183.64691
1832.00000,199.43893
1834.00000,138.12061
1836.00000,115.44196
1838.00000,179.89162
1840.00000,195.24234
1842.00000,175.02124
1844.00000,151.63478
1846.00000,133.48636
1848.00000,140.41164
1850.00000,208.04652
1852.00000,179.26950
1854.00000,108.65863
1856.00000,158.18881
1858.00000,181.01920
1860.00000,114.41954
1862.00000,129.04456
1864.00000,221.50693
1866.00000,171.08701
1868.00000,201.10132
1870.00000,194.12331
1872.00000,157.80759
1874.00000,188.57608
1876.00000,120.56778
1878.00000,153.30179
1880.00000,256.62238
1882.00000,259.70166
1884.00000,174.31477
1886.00000,210.98862
1888.00000,225.59206
1890.00000,219.95618
1892.00000,292.61273
1894.00000,281.72906
1896.00000,260.47742
1898.00000,247.39847
1900.00000,225.05733
1902.00000,221.46864
1904.00000,240.20329
1906.00000,219.89708
1908.00000,201.89127
1910.00000,228.55205
1912.00000,189.40398
1914.00000,138.29181
1916.00000,165.12848
1918.00000,240.20354
1920.00000,246.77791
1922.00000,206.75787
1924.00000,188.93706
1926.00000,215.62183
1928.00000,252.24353
1930.00000,255.27435
1932.00000,219.85794
1934.00000,176.71483
1936.00000,182.76732
1938.00000,237.80896
1940.00000,207.25958
1942.00000,210.43690
1944.00000,201.29352
1946.00000,127.12136
1948.00000,174.29828
1950.00000,102.18326
1952.00000,105.51672
1954.00000,190.47935
1956.00000,78.60419
1958.00000,120.84555
1960.00000,196.32314
1962.00000,217.62996
1964.00000,228.39610
1966.00000,191.10011
1968.00000,171.78001
1970.00000,178.81586
1972.00000,166.23209
1974.00000,130.42738
1976.00000,156.22310
1978.00000,143.98003
1980.00000,149.82019
1982.00000,203.80914
1984.00000,126.80084
1986.00000,131.38474
1988.00000,158.31679
1990.00000,119.81784
1992.00000,97.44359
1994.00000,119.44382
1996.00000,125.94363
1998.00000,97.41544
2000.00000,16.35343
2002.00000,40.44166
2004.00000,60.59491
2006.00000,53.29639
2008.00000,54.12346
2010.00000,69.33865
2012.00000,75.22161
2014.00000,97.07039
2016.00000,153.50494
2018.00000,149.08752
2020.00000,155.23537
2022.00000,162.44670
2024.00000,128.85617
2026.00000,123.19196
2028.00000,175.10201
2030.00000,148.59247
2032.00000,73.31112
2034.00000,110.71260
2036.00000,80.62881
2038.00000,63.66358
2040.00000,90.21876
2042.00000,89.46899
2044.00000,79.44298
2046.00000,104.82350
2048.00000,108.53884
2050.00000,76.49712
2052.00000,97.47720
2054.00000,145.13361
2056.00000,156.32277
2058.00000,134.57834
2060.00000,135.00258
2062.00000,161.36339
2064.00000,152.73486
2066.00000,124.90541
2068.00000,128.59900
2070.00000,157.10634
2072.00000,166.59041
2074.00000,118.01653
2076.00000,97.30846
2078.00000,167.58925
2080.00000,109.63585
2082.00000,77.62525
2084.00000,127.31133
2086.00000,145.30746
2088.00000,107.75613
2090.00000,137.91382
2092.00000,157.79921
2094.00000,128.86336
2096.00000,153.19374
2098.00000,153.12166
2100.00000,150.96703
2102.00000,179.03194
2104.00000,209.95547
2106.00000,198.12883
2108.00000,178.96466
2110.00000,166.26279
2112.00000,176.50043
2114.00000,223.53751
2116.00000,198.92929
2118.00000,170.30814
2120.00000,177.79895
2122.00000,168.45573
2124.00000,163.28024
2126.00000,209.61343
2128.00000,208.75275
2130.00000,149.60002
2132.00000,220.94511
2134.00000,232.50047
2136.00000,171.07570
2138.00000,165.75185
2140.00000,235.75504
2142.00000,193.46352
2144.00000,181.38475
2146.00000,215.01501
2148.00000,194.20146
2150.00000,193.12250
2152.00000,209.87029
2154.00000,208.58867
2156.00000,211.76649
2158.00000,255.64758
2160.00000,214.12242
2162.00000,182.47351
2164.00000,222.27164
2166.00000,262.19162
2168.00000,252.64613
2170.00000,208.85878
2172.00000,215.73912
2174.00000,267.09851
2176.00000,246.01411
2178.00000,266.44110
2180.00000,335.20490
2182.00000,338.92758
2184.00000,248.96043
2186.00000,279.79117
2188.00000,355.41934
2190.00000,335.94275
2192.00000,262.76105
2194.00000,307.12216
2196.00000,276.99698
2198.00000,217.99892
2200.00000,248.47162
2202.00000,318.61703
2204.00000,329.34879
2206.00000,305.85446
2208.00000,318.94370
2210.00000,393.90079
2212.00000,475.90872
2214.00000,487.55414
2216.00000,494.02167
2218.00000,532.23151
2220.00000,511.31824
2222.00000,475.01370
2224.00000,510.34592
2226.00000,533.12408
2228.00000,438.81882
2230.00000,419.83334
2232.00000,432.80536
2234.00000,362.15872
2236.00000,280.79504
2238.00000,370.43179
2240.00000,301.82065
2242.00000,246.57796
2244.00000,294.63293
2246.00000,229.52061
2248.00000,213.41103
2250.00000,231.69331
2252.00000,224.42575
2254.00000,216.09729
2256.00000,261.38663
2258.00000,232.32776
2260.00000,233.31705
2262.00000,328.97513
2264.00000,358.82617
2266.00000,318.37955
2268.00000,346.81799
2270.00000,417.34995
2272.00000,405.10275
2274.00000,390.46936
2276.00000,416.72409
2278.00000,418.92386
2280.00000,357.92221
2282.00000,306.87573
2284.00000,288.03754
2286.00000,296.96811
2288.00000,321.92960
2290.00000,339.83932
2292.00000,312.14975
2294.00000,256.83167
2296.00000,243.62201
2298.00000,290.24399
2300.00000,313.59454
2302.00000,324.74857
2304.00000,331.50778
2306.00000,316.21066
2308.00000,289.93210
2310.00000,335.20584
2312.00000,334.00287
2314.00000,273.30536
2316.00000,247.59181
2318.00000,228.05446
2320.00000,174.78058
2322.00000,207.43727
2324.00000,264.69025
2326.00000,121.11691
2328.00000,159.63855
2330.00000,256.38608
2332.00000,190.30463
2334.00000,77.23526
2336.00000,197.16316
2338.00000,185.29227
2340.00000,114.16062
2342.00000,198.85953
2344.00000,204.25816
2346.00000,166.92694
2348.00000,172.18874
2350.00000,224.47943
2352.00000,262.02054
2354.00000,257.80063
2356.00000,226.33073
2358.00000,223.18974
2360.00000,252.48534
2362.00000,227.85439
2364.00000,220.40657
2366.00000,248.67426
2368.00000,259.19037
2370.00000,213.60393
2372.00000,167.87144
2374.00000,199.51697
2376.00000,230.58826
2378.00000,164.70453
2380.00000,144.76465
2382.00000,208.56551
2384.00000,227.22203
2386.00000,154.06416
2388.00000,152.93384
2390.00000,249.83730
2392.00000,244.62526
2394.00000,177.76372
2396.00000,245.56458
2398.00000,233.39764
2400.00000,197.63457
2402.00000,194.75941
2404.00000,211.03651
2406.00000,251.66364
2408.00000,266.50003
2410.00000,253.06783
2412.00000,269.79007
2414.00000,334.34201
2416.00000,317.05054
2418.00000,333.96820
2420.00000,330.04706
2422.00000,224.16049
2424.00000,253.67955
2426.00000,257.04483
2428.00000,242.16460
2430.00000,248.69742
2432.00000,179.28580
2434.00000,151.12627
2436.00000,157.60498
2438.00000,155.52568
2440.00000,143.83092
2442.00000,119.55951
2444.00000,68.95135
2446.00000,58.44344
2448.00000,117.28114
2450.00000,149.46284
2452.00000,151.57913
2454.00000,142.51515
2456.00000,141.61948
2458.00000,162.04880
2460.00000,193.60080
2462.00000,200.01375
2464.00000,199.44576
2466.00000,195.65480
2468.00000,137.87865
2470.00000,195.42206
2472.00000,260.75131
2474.00000,224.50163
2476.00000,196.57381
2478.00000,183.86981
2480.00000,191.97612
2482.00000,199.14421
2484.00000,189.74603
2486.00000,211.08626
2488.00000,235.30630
2490.00000,240.42999
2492.00000,230.08698
2494.00000,220.76555
2496.00000,239.28737
2498.00000,224.70525
2500.00000,186.41302
2502.00000,198.01421
2504.00000,204.77791
2506.00000,166.33455
2508.00000,158.54071
2510.00000,211.33029
2512.00000,192.53319
2514.00000,140.47681
2516.00000,107.93597
2518.00000,97.84525
2520.00000,95.80018
2522.00000,127.19342
2524.00000,124.95575
2526.00000,97.19823
2528.00000,89.37413
2530.00000,55.34900
2532.00000,61.69253
2534.00000,136.47008
2536.00000,198.29866
2538.00000,156.39339
2540.00000,129.75180
2542.00000,130.89105
2544.00000,118.26520
2546.00000,101.67130
2548.00000,138.49426
2550.00000,137.90952
2552.00000,111.99625
2554.00000,131.06628
2556.00000,167.92667
2558.00000,155.70097
2560.00000,162.45137
2562.00000,196.45987
2564.00000,176.05235
2566.00000,160.65723
2568.00000,168.51556
2570.00000,149.15022
2572.00000,109.96326
2574.00000,153.09061
2576.00000,125.01488
2578.00000,100.03724
2580.00000,134.91867
2582.00000,103.53625
2584.00000,63.39272
2586.00000,77.98822
2588.00000,82.13140
2590.00000,43.63719
2592.00000,127.65943
2594.00000,140.69502
2596.00000,89.94858
2598.00000,76.06148
2600.00000,61.67606
2602.00000,109.85555
2604.00000,134.36618
2606.00000,100.01034
2608.00000,100.93152
2610.00000,163.22881
2612.00000,131.86572
2614.00000,107.81377
2616.00000,183.98431
2618.00000,137.19673
2620.00000,86.69012
2622.00000,139.52094
2624.00000,205.38692
2626.00000,152.36514
2628.00000,140.14041
2630.00000,142.74229
2632.00000,116.52300
2634.00000,91.94124
2636.00000,103.58451
2638.00000,140.72375
2640.00000,126.14287
2642.00000,95.31264
2644.00000,155.76741
2646.00000,93.11602
2648.00000,58.59397
2650.00000,116.79996
2652.00000,132.77492
2654.00000,141.95898
2656.00000,176.23892
2658.00000,164.17244
2660.00000,83.81078
2662.00000,71.96096
2664.00000,167.07472
2666.00000,176.53824
2668.00000,120.98856
2670.00000,183.08839
2672.00000,139.81914
2674.00000,138.59209
2676.00000,175.67610
2678.00000,141.41251
2680.00000,149.10890
2682.00000,163.18958
2684.00000,145.00780
2686.00000,117.20975
2688.00000,110.86423
2690.00000,72.86485
2692.00000,73.02669
2694.00000,99.27364
2696.00000,76.74554
2698.00000,59.67765
2700.00000,80.48406
2702.00000,137.22609
2704.00000,167.62622
2706.00000,108.86021
2708.00000,83.20642
2710.00000,81.84171
2712.00000,72.62503
2714.00000,87.68166
2716.00000,142.14012
2718.00000,148.84634
2720.00000,139.80557
2722.00000,139.69530
2724.00000,63.45695
2726.00000,130.35222
2728.00000,217.19949
2730.00000,187.04723
2732.00000,155.16969
2734.00000,189.11235
2736.00000,186.87338
2738.00000,147.24036
2740.00000,184.78052
2742.00000,288.58386
2744.00000,174.27777
2746.00000,111.98455
2748.00000,247.63269
2750.00000,212.65575
2752.00000,159.88040
2754.00000,104.36125
2756.00000,101.18648
2758.00000,193.65263
2760.00000,167.71558
2762.00000,188.14932
2764.00000,190.29787
2766.00000,117.07807
2768.00000,187.68954
2770.00000,199.61549
2772.00000,139.53065
2774.00000,111.03159
2776.00000,130.46440
2778.00000,112.84024
2780.00000,77.32951
2782.00000,98.80281
2784.00000,162.51443
2786.00000,143.13232
2788.00000,137.88663
2790.00000,125.83812
2792.00000,87.78121
2794.00000,98.85606
2796.00000,121.87046
2798.00000,120.77170
2800.00000,113.56216
2802.00000,137.43568
2804.00000,176.88040
2806.00000,182.15860
2808.00000,244.62865
2810.00000,323.88379
2812.00000,226.35724
2814.00000,266.85800
2816.00000,366.54166
2818.00000,385.99515
2820.00000,369.32498
2822.00000,344.78537
2824.00000,346.06531
2826.00000,377.24399
2828.00000,380.32516
2830.00000,315.09070
2832.00000,382.12158
2834.00000,394.35962
2836.00000,266.09921
2838.00000,239.39363
2840.00000,309.42581
2842.00000,256.25568
2844.00000,169.42163
2846.00000,242.36855
2848.00000,277.85324
2850.00000,175.63525
2852.00000,204.26205
2854.00000,319.36389
2856.00000,147.79169
2858.00000,251.79727
2860.00000,253.23024
2862.00000,132.75067
2864.00000,271.30121
2866.00000,252.00868
2868.00000,304.91824
2870.00000,365.31064
2872.00000,284.90381
2874.00000,286.40546
2876.00000,319.55710
2878.00000,352.85300
2880.00000,350.64584
2882.00000,315.33533
2884.00000,385.31900
2886.00000,258.01517
2888.00000,161.59415
2890.00000,348.67429
2892.00000,319.49585
2894.00000,256.51340
2896.00000,253.38878
2898.00000,229.61591
2900.00000,165.29762
2902.00000,199.40118
2904.00000,283.21140
2906.00000,325.10608
2908.00000,308.73093
2910.00000,274.99896
2912.00000,250.14441
2914.00000,248.00826
2916.00000,234.61464
2918.00000,199.86412
2920.00000,332.60727
2922.00000,292.65826
2924.00000,120.52527
2926.00000,205.50876
2928.00000,246.99434
2930.00000,190.15561
2932.00000,209.05923
2934.00000,298.74133
2936.00000,204.00557
2938.00000,239.83142
2940.00000,290.00009
2942.00000,258.68982
2944.00000,296.84363
2946.00000,231.52229
2948.00000,187.61867
2950.00000,210.71677
2952.00000,233.18669
2954.00000,278.60223
2956.00000,210.86678
2958.00000,193.00754
2960.00000,304.87570
2962.00000,311.72009
2964.00000,238.02505
2966.00000,227.02675
2968.00000,220.14975
2970.00000,141.50682
2972.00000,237.62839
2974.00000,256.65915
2976.00000,201.83211
2978.00000,216.63365
2980.00000,217.28842
2982.00000,192.55125
2984.00000,217.87117
2986.00000,210.09061
2988.00000,111.60741
2990.00000,287.62793
2992.00000,344.24594
2994.00000,234.84489
2996.00000,239.13667
2998.00000,291.94156
3000.00000,296.09512
3002.00000,233.12257
3004.00000,180.27966
3006.00000,199.07144
3008.00000,178.24321
3010.00000,246.37370
3012.00000,254.48027
3014.00000,72.21832
3016.00000,130.22792
3018.00000,140.61601
3020.00000,84.84091
3022.00000,126.91315
3024.00000,184.83490
3026.00000,118.42449
3028.00000,117.82105
3030.00000,178.19160
3032.00000,164.34642
3034.00000,339.08423
3036.00000,330.87762
3038.00000,208.43814
3040.00000,241.53421
3042.00000,266.07901
3044.00000,314.71875
3046.00000,290.68973
3048.00000,232.46277
3050.00000,305.49146
3052.00000,324.04935
3054.00000,264.15533
3056.00000,266.31311
3058.00000,362.78497
3060.00000,344.40570
3062.00000,308.67905
3064.00000,298.98914
3066.00000,376.82321
3068.00000,556.50397
3070.00000,420.63730
3072.00000,391.42932
3074.00000,482.56052
3076.00000,351.48300
3078.00000,414.91028
3080.00000,419.95972
3082.00000,375.90305
3084.00000,378.75699
3086.00000,285.31100
3088.00000,423.56339
3090.00000,447.98044
3092.00000,263.67282
3094.00000,257.74112
3096.00000,294.78934
3098.00000,331.08429
3100.00000,285.38739
3102.00000,232.33606
3104.00000,412.40152
3106.00000,256.26816
3108.00000,160.80028
3110.00000,370.18735
3112.00000,343.60104
3114.00000,234.87900
3116.00000,294.25583
3118.00000,405.42911
3120.00000,344.63339
3122.00000,293.86438
3124.00000,397.85156
3126.00000,423.67593
3128.00000,340.63452
3130.00000,446.79535
3132.00000,290.63068
3134.00000,312.97202
3136.00000,483.76895
3138.00000,311.71002
3140.00000,319.97440
3142.00000,221.27321
3144.00000,120.04729
3146.00000,255.77019
3148.00000,307.44162
3150.00000,244.06705
3152.00000,171.27333
3154.00000,238.38268
3156.00000,392.57431
3158.00000,200.84393
3160.00000,192.69150
3162.00000,263.83630
3164.00000,102.29398
3166.00000,301.73102
3168.00000,287.39267
3170.00000,243.70781
3172.00000,324.66516
3174.00000,125.25144
3176.00000,214.94777
3178.00000,338.02881
3180.00000,346.67282
3182.00000,372.81137
3184.00000,193.46980
3186.00000,367.40646
3188.00000,502.71124
3190.00000,328.34570
3192.00000,532.01733
3194.00000,339.62848
3196.00000,216.92941
3198.00000,428.02667
3200.00000,409.82776
