300.00000,3.24640
302.00000,4.11467
304.00000,3.20049
306.00000,1.23316
308.00000,4.02909
310.00000,10.09674
312.00000,11.91337
314.00000,12.50079
316.00000,12.24508
318.00000,9.87563
320.00000,10.46711
322.00000,23.22397
324.00000,32.85007
326.00000,42.80610
328.00000,59.60487
330.00000,81.41229
332.00000,114.38242
334.00000,132.44972
336.00000,128.31697
338.00000,131.40047
340.00000,172.41118
342.00000,219.72820
344.00000,253.10304
346.00000,269.34451
348.00000,263.94864
350.00000,226.59502
352.00000,164.48975
354.00000,103.71527
356.00000,73.89713
358.00000,80.32338
360.00000,80.87598
362.00000,81.76926
364.00000,83.61656
366.00000,63.37995
368.00000,43.20825
370.00000,33.33928
372.00000,45.79186
374.00000,67.77800
376.00000,62.99645
378.00000,84.87197
380.00000,102.51609
382.00000,87.35412
384.00000,71.29098
386.00000,69.38407
388.00000,68.70461
390.00000,60.15260
392.00000,57.38926
394.00000,74.94702
396.00000,64.82375
398.00000,32.33511
400.00000,26.95956
402.00000,66.52501
404.00000,85.91154
406.00000,81.16284
408.00000,77.15017
410.00000,79.47169
412.00000,75.64098
414.00000,97.94839
416.00000,111.45081
418.00000,105.83092
420.00000,115.69156
422.00000,127.75378
424.00000,140.91547
426.00000,139.64676
428.00000,126.97846
430.00000,140.37677
432.00000,163.55930
434.00000,178.32571
436.00000,179.85262
438.00000,181.86690
440.00000,207.28290
442.00000,219.74321
444.00000,221.36816
446.00000,225.90004
448.00000,212.03741
450.00000,187.93251
452.00000,178.19891
454.00000,172.95447
456.00000,155.09822
458.00000,158.24796
460.00000,138.48337
462.00000,116.31532
464.00000,115.33477
466.00000,92.98864
468.00000,67.88546
470.00000,56.84755
472.00000,57.92472
474.00000,53.95341
476.00000,30.34861
478.00000,20.34502
480.00000,40.37587
482.00000,69.00005
484.00000,74.32677
486.00000,63.74868
488.00000,50.56137
490.00000,35.42002
492.00000,23.15805
494.00000,38.34660
496.00000,55.87479
498.00000,60.40132
500.00000,58.10934
502.00000,61.46103
504.00000,77.34190
506.00000,79.38803
508.00000,75.23461
510.00000,91.22573
512.00000,106.13231
514.00000,115.99536
516.00000,109.50663
518.00000,86.64709
520.00000,72.75487
522.00000,82.76641
524.00000,93.69347
526.00000,104.71032
528.00000,132.88350
530.00000,159.01009
532.00000,148.62813
534.00000,133.53709
536.00000,136.67899
538.00000,128.49483
540.00000,121.28047
542.00000,122.76936
544.00000,124.41270
546.00000,122.96864
548.00000,129.50612
550.00000,104.26122
552.00000,64.63404
554.00000,55.74914
556.00000,82.14679
558.00000,99.29880
560.00000,100.84777
562.00000,102.68641
564.00000,118.74548
566.00000,144.14598
568.00000,138.12782
570.00000,118.28902
572.00000,125.19556
574.00000,154.78752
576.00000,153.87442
578.00000,145.93304
580.00000,154.76019
582.00000,152.44113
584.00000,108.28384
586.00000,126.43248
588.00000,160.89551
590.00000,160.69208
592.00000,168.95650
594.00000,161.26950
596.00000,159.04289
598.00000,173.36177
600.00000,177.61464
602.00000,152.95584
604.00000,165.19182
606.00000,154.07645
608.00000,117.76383
610.00000,154.84850
612.00000,191.68498
614.00000,123.79939
616.00000,71.61794
618.00000,125.79380
620.00000,101.71545
622.00000,98.28722
624.00000,94.00215
626.00000,61.99749
628.00000,57.90298
630.00000,56.45657
632.00000,65.01269
634.00000,71.22198
636.00000,73.79607
638.00000,114.25694
640.00000,155.37814
642.00000,179.47050
644.00000,187.02548
646.00000,170.32167
648.00000,123.05983
650.00000,105.23449
652.00000,106.33797
654.00000,101.42991
656.00000,123.14008
658.00000,100.81236
660.00000,122.54754
662.00000,183.79872
664.00000,181.35995
666.00000,233.22873
668.00000,316.61331
670.00000,412.02759
672.00000,550.09204
674.00000,771.60211
676.00000,1147.99780
678.00000,1799.49072
680.00000,2708.64014
682.00000,3618.71191
684.00000,4139.41504
686.00000,4024.16772
688.00000,3388.89966
690.00000,2565.22827
692.00000,1830.80371
694.00000,1319.98364
696.00000,1042.37769
698.00000,924.88055
700.00000,871.97510
702.00000,828.58557
704.00000,783.98199
706.00000,733.77252
708.00000,667.08740
710.00000,583.06183
712.00000,518.29614
714.00000,478.64304
716.00000,450.62296
718.00000,429.70593
720.00000,430.18301
722.00000,457.28821
724.00000,495.64484
726.00000,557.86047
728.00000,696.98657
730.00000,913.66046
732.00000,1213.55847
734.00000,1668.59180
736.00000,2299.45557
738.00000,2887.46265
740.00000,3156.64966
742.00000,2938.95923
744.00000,2353.68604
746.00000,1756.04407
748.00000,1312.37854
750.00000,1057.23633
752.00000,892.41925
754.00000,732.01233
756.00000,662.24103
758.00000,636.40637
760.00000,659.91736
762.00000,736.47852
764.00000,819.75238
766.00000,985.36829
768.00000,1283.11768
770.00000,1698.97888
772.00000,2167.57056
774.00000,2577.42432
776.00000,2727.27393
778.00000,2499.61133
780.00000,2002.49158
782.00000,1496.88708
784.00000,1085.37256
786.00000,852.14325
788.00000,738.11432
790.00000,627.33374
792.00000,546.12225
794.00000,472.80145
796.00000,414.46320
798.00000,399.93094
800.00000,410.38086
802.00000,352.89996
804.00000,325.73730
806.00000,336.94159
808.00000,343.79895
810.00000,441.57245
812.00000,478.68430
814.00000,545.21082
816.00000,655.13153
818.00000,608.52740
820.00000,539.19666
822.00000,453.73526
824.00000,342.01566
826.00000,253.69106
828.00000,231.50909
830.00000,244.05209
832.00000,231.17442
834.00000,182.32396
836.00000,146.08446
838.00000,140.33173
840.00000,143.66551
842.00000,159.64386
844.00000,168.66985
846.00000,114.34562
848.00000,156.58279
850.00000,142.39232
852.00000,61.44006
854.00000,135.06490
856.00000,114.69718
858.00000,94.60159
860.00000,104.26907
862.00000,87.22615
864.00000,118.04622
866.00000,83.36377
868.00000,63.49085
870.00000,98.44080
872.00000,82.19983
874.00000,71.37429
876.00000,83.32262
878.00000,73.99896
880.00000,45.77743
882.00000,78.25053
884.00000,75.16933
886.00000,53.82272
888.00000,53.60073
890.00000,53.63132
892.00000,67.65239
894.00000,79.58524
896.00000,89.76840
898.00000,98.63445
900.00000,82.71263
902.00000,70.36787
904.00000,71.02014
906.00000,70.93321
908.00000,63.91544
910.00000,70.01219
912.00000,69.97047
914.00000,58.70376
916.00000,50.18987
918.00000,43.23296
920.00000,15.07372
922.00000,20.07856
924.00000,60.47163
926.00000,66.74767
928.00000,55.00781
930.00000,81.58534
932.00000,102.77975
934.00000,73.93394
936.00000,61.69463
938.00000,70.61904
940.00000,70.27808
942.00000,81.12798
944.00000,130.85538
946.00000,136.86559
948.00000,124.28181
950.00000,177.79649
952.00000,276.80643
954.00000,296.35443
956.00000,345.35773
958.00000,378.89102
960.00000,324.66306
962.00000,227.62202
964.00000,187.40480
966.00000,170.87701
968.00000,144.71072
970.00000,129.02826
972.00000,142.04842
974.00000,112.54896
976.00000,80.97216
978.00000,129.72075
980.00000,215.12273
982.00000,146.88788
984.00000,93.62864
986.00000,97.52156
988.00000,92.16755
990.00000,103.09258
992.00000,131.82886
994.00000,103.82729
996.00000,91.74134
998.00000,200.98141
1000.00000,263.09256
1002.00000,270.45157
1004.00000,266.14182
1006.00000,245.17244
1008.00000,180.10464
1010.00000,142.83737
1012.00000,148.54993
1014.00000,157.40292
1016.00000,136.67500
1018.00000,105.42854
1020.00000,80.65845
1022.00000,86.85714
1024.00000,106.10319
1026.00000,94.51515
1028.00000,116.34138
1030.00000,116.91850
1032.00000,102.17622
1034.00000,134.22948
1036.00000,157.13641
1038.00000,138.23111
1040.00000,96.37222
1042.00000,78.54228
1044.00000,100.64964
1046.00000,94.90675
1048.00000,87.88329
1050.00000,75.47414
1052.00000,46.91154
1054.00000,79.52871
1056.00000,86.39081
1058.00000,120.66527
1060.00000,165.21809
1062.00000,94.61718
1064.00000,139.52861
1066.00000,202.94453
1068.00000,210.92197
1070.00000,226.75194
1072.00000,249.18259
1074.00000,297.55374
1076.00000,385.81232
1078.00000,500.29919
1080.00000,595.22241
1082.00000,620.57117
1084.00000,627.65570
1086.00000,595.79126
1088.00000,497.26453
1090.00000,435.92300
1092.00000,356.00369
1094.00000,292.41586
1096.00000,272.09366
1098.00000,238.07524
1100.00000,211.27301
1102.00000,187.23811
1104.00000,179.57230
1106.00000,183.15079
1108.00000,135.20990
1110.00000,87.70048
1112.00000,91.91476
1114.00000,96.98059
1116.00000,44.47252
1118.00000,73.20438
1120.00000,49.97203
1122.00000,33.62961
1124.00000,127.20932
1126.00000,124.67354
1128.00000,100.54837
1130.00000,114.59386
1132.00000,127.64422
1134.00000,114.73827
1136.00000,171.32324
1138.00000,121.42644
1140.00000,66.81824
1142.00000,173.21712
1144.00000,219.21381
1146.00000,177.10477
1148.00000,145.85927
1150.00000,156.48360
1152.00000,154.54524
1154.00000,170.40991
1156.00000,182.32727
1158.00000,207.12598
1160.00000,229.90187
1162.00000,168.47272
1164.00000,172.78711
1166.00000,186.07045
1168.00000,194.25844
1170.00000,287.95218
1172.00000,326.53336
1174.00000,329.89404
1176.00000,388.12979
1178.00000,492.67548
1180.00000,542.33221
1182.00000,651.13959
1184.00000,797.05444
1186.00000,906.56110
1188.00000,966.59119
1190.00000,983.94293
1192.00000,997.78125
1194.00000,1049.89978
1196.00000,1179.63733
1198.00000,1396.93030
1200.00000,1600.46362
1202.00000,1781.71790
1204.00000,1994.15698
1206.00000,2272.36841
1208.00000,2592.89355
1210.00000,2864.52002
1212.00000,3010.42456
1214.00000,2907.17432
1216.00000,2468.00391
1218.00000,2058.11597
1220.00000,1651.35632
1222.00000,1248.12354
1224.00000,1011.90179
1226.00000,835.89899
1228.00000,675.52209
1230.00000,534.27448
1232.00000,443.23242
1234.00000,421.46503
1236.00000,380.62473
1238.00000,363.65656
1240.00000,328.29291
1242.00000,205.58669
1244.00000,182.46591
1246.00000,219.46870
1248.00000,225.12613
1250.00000,213.53374
1252.00000,259.08765
1254.00000,262.42459
1256.00000,247.33328
1258.00000,265.22903
1260.00000,318.81940
1262.00000,399.78091
1264.00000,444.07034
1266.00000,495.64832
1268.00000,618.17297
1270.00000,793.27100
1272.00000,1042.09131
1274.00000,1371.98438
1276.00000,1766.47620
1278.00000,2201.15308
1280.00000,2638.70410
1282.00000,2945.22217
1284.00000,3104.13379
1286.00000,3194.50854
1288.00000,3268.88110
1290.00000,3294.27075
1292.00000,3110.18530
1294.00000,2753.61841
1296.00000,2362.43335
1298.00000,1874.78943
1300.00000,1533.90857
1302.00000,1285.68164
1304.00000,1016.25739
1306.00000,833.28693
1308.00000,700.55579
1310.00000,617.77667
1312.00000,554.00977
1314.00000,528.53406
1316.00000,631.56036
1318.00000,435.03958
1320.00000,425.39227
1322.00000,716.35773
1324.00000,615.14307
1326.00000,937.27319
1328.00000,1285.24292
1330.00000,1546.09363
1332.00000,2092.13525
1334.00000,2648.94360
1336.00000,3149.02563
1338.00000,3472.00439
1340.00000,3433.99487
1342.00000,3020.81519
1344.00000,2574.44702
1346.00000,2148.28857
1348.00000,1707.95618
1350.00000,1327.79358
1352.00000,1115.36389
1354.00000,917.96112
1356.00000,859.09149
1358.00000,921.82684
1360.00000,833.77850
1362.00000,794.56500
1364.00000,755.77362
1366.00000,658.25507
1368.00000,545.94171
1370.00000,452.48294
1372.00000,408.11584
1374.00000,355.88269
1376.00000,280.85471
1378.00000,251.83910
1380.00000,255.36850
1382.00000,277.41708
1384.00000,299.48392
1386.00000,333.02814
1388.00000,413.39056
1390.00000,422.77081
1392.00000,429.78976
1394.00000,463.89154
1396.00000,419.72433
1398.00000,363.79248
1400.00000,319.46439
1402.00000,284.29047
1404.00000,255.28082
1406.00000,221.52214
1408.00000,167.55530
1410.00000,157.91724
1412.00000,189.16600
1414.00000,180.53369
1416.00000,171.82077
1418.00000,107.88195
1420.00000,106.94291
1422.00000,219.43346
1424.00000,209.92157
1426.00000,254.21754
1428.00000,253.98235
1430.00000,200.75256
1432.00000,292.41376
1434.00000,396.11578
1436.00000,392.64606
1438.00000,363.58853
1440.00000,399.54547
1442.00000,425.21158
1444.00000,508.55658
1446.00000,549.37036
1448.00000,503.93735
1450.00000,460.26321
1452.00000,389.46439
1454.00000,327.80133
1456.00000,301.91321
1458.00000,274.65024
1460.00000,204.11574
1462.00000,200.77391
1464.00000,233.57707
1466.00000,207.04839
1468.00000,162.12790
1470.00000,274.41525
1472.00000,187.51331
1474.00000,117.93209
1476.00000,285.66473
1478.00000,239.58484
1480.00000,221.44031
1482.00000,281.06024
1484.00000,285.27362
1486.00000,187.10304
1488.00000,111.57014
1490.00000,92.92459
1492.00000,176.94753
1494.00000,291.30951
1496.00000,259.60297
1498.00000,307.40335
1500.00000,440.95456
1502.00000,544.12946
1504.00000,601.02936
1506.00000,696.49512
1508.00000,699.82867
1510.00000,724.72791
1512.00000,852.90955
1514.00000,922.79108
1516.00000,1181.37610
1518.00000,1562.98511
1520.00000,1940.95679
1522.00000,2409.57007
1524.00000,3172.74194
1526.00000,4097.80957
1528.00000,5105.68262
1530.00000,6327.42041
1532.00000,7888.53711
1534.00000,9461.63672
1536.00000,10635.90820
1538.00000,10727.45508
1540.00000,9512.08301
1542.00000,8060.72656
1544.00000,6447.33740
1546.00000,5177.17188
1548.00000,4496.62207
1550.00000,3822.44385
1552.00000,3392.67017
1554.00000,3083.75049
1556.00000,2791.18213
1558.00000,2559.94727
1560.00000,2276.92456
1562.00000,2076.01709
1564.00000,1881.26343
1566.00000,1683.70325
1568.00000,1638.35291
1570.00000,1412.76697
1572.00000,1208.33679
1574.00000,1155.09558
1576.00000,1075.11023
1578.00000,893.25732
1580.00000,762.47076
1582.00000,690.51538
1584.00000,606.25128
1586.00000,525.16571
1588.00000,489.28461
1590.00000,474.57123
1592.00000,441.20642
1594.00000,368.92624
1596.00000,269.96414
1598.00000,239.34102
1600.00000,284.32138
1602.00000,301.36594
1604.00000,209.92638
1606.00000,137.53400
1608.00000,161.19334
1610.00000,180.20949
1612.00000,132.88451
1614.00000,188.94783
1616.00000,214.94901
1618.00000,203.86790
1620.00000,192.31097
1622.00000,149.57199
1624.00000,154.96764
1626.00000,172.17891
1628.00000,196.10414
1630.00000,214.26218
1632.00000,132.62115
1634.00000,125.97353
1636.00000,173.84738
1638.00000,171.80815
1640.00000,143.21321
1642.00000,169.83911
1644.00000,184.42422
1646.00000,157.66096
1648.00000,157.48203
1650.00000,205.40271
1652.00000,105.91793
1654.00000,72.15637
1656.00000,165.39676
1658.00000,133.08511
1660.00000,171.16965
1662.00000,127.57677
1664.00000,93.43549
1666.00000,208.57225
1668.00000,201.79352
1670.00000,161.20992
1672.00000,152.93320
1674.00000,174.02357
1676.00000,208.68005
1678.00000,213.85669
1680.00000,202.99239
1682.00000,166.79880
1684.00000,152.65575
1686.00000,249.27634
1688.00000,163.65453
1690.00000,103.63407
1692.00000,190.09966
1694.00000,164.12544
1696.00000,57.77743
1698.00000,123.35857
1700.00000,198.60983
1702.00000,107.64345
1704.00000,146.38707
1706.00000,160.35005
1708.00000,112.19469
1710.00000,119.79993
1712.00000,184.31866
1714.00000,62.81649
1716.00000,73.02028
1718.00000,166.15561
1720.00000,103.34203
1722.00000,51.73531
1724.00000,113.33475
1726.00000,134.28688
1728.00000,87.66276
1730.00000,111.42730
1732.00000,111.27550
1734.00000,94.25723
1736.00000,110.13425
1738.00000,156.60785
1740.00000,158.99947
1742.00000,75.94488
1744.00000,66.52973
1746.00000,132.07614
1748.00000,122.54031
1750.00000,137.97963
1752.00000,143.99338
1754.00000,147.58748
1756.00000,185.72145
1758.00000,214.62086
1760.00000,165.38794
1762.00000,148.34572
1764.00000,134.59499
1766.00000,50.70927
1768.00000,151.66508
1770.00000,188.89938
1772.00000,134.00572
1774.00000,122.84113
1776.00000,111.17968
1778.00000,90.07452
1780.00000,177.60484
1782.00000,230.48978
1784.00000,110.18906
1786.00000,220.30403
1788.00000,210.04236
1790.00000,135.38512
1792.00000,191.79744
1794.00000,175.28627
1796.00000,143.52481
1798.00000,164.55223
1800.00000,158.26607
1802.00000,103.29189
1804.00000,227.07932
1806.00000,177.22516
1808.00000,87.08338
1810.00000,163.79300
1812.00000,161.00934
1814.00000,138.56049
1816.00000,214.94786
1818.00000,257.53534
1820.00000,162.02165
1822.00000,240.65688
1824.00000,248.51303
1826.00000,233.30487
1828.00000,275.64828
1830.00000,206.61331
1832.00000,243.87738
1834.00000,287.40863
1836.00000,287.45386
1838.00000,300.22272
1840.00000,224.55556
1842.00000,221.37131
1844.00000,222.19193
1846.00000,193.73334
1848.00000,287.18570
1850.00000,293.28336
1852.00000,245.51099
1854.00000,217.48317
1856.00000,223.14398
1858.00000,287.73056
1860.00000,251.70131
1862.00000,222.55040
1864.00000,256.23883
1866.00000,211.27599
1868.00000,273.26959
1870.00000,246.08493
1872.00000,174.97644
1874.00000,215.14932
1876.00000,127.95089
1878.00000,186.64886
1880.00000,217.51025
1882.00000,142.15654
1884.00000,227.53893
1886.00000,136.53526
1888.00000,120.18567
1890.00000,201.76573
1892.00000,160.70032
1894.00000,149.43515
1896.00000,225.82230
1898.00000,242.79773
1900.00000,169.82364
1902.00000,159.61140
1904.00000,147.53499
1906.00000,182.39101
1908.00000,218.25607
1910.00000,209.30869
1912.00000,268.81500
1914.00000,220.84918
1916.00000,245.44807
1918.00000,307.02402
1920.00000,128.59793
1922.00000,192.54967
1924.00000,318.45331
1926.00000,316.90979
1928.00000,248.13876
1930.00000,173.98334
1932.00000,185.71318
1934.00000,228.03406
1936.00000,247.17853
1938.00000,251.83501
1940.00000,174.55075
1942.00000,156.22935
1944.00000,203.31923
1946.00000,204.17253
1948.00000,173.44545
1950.00000,193.24260
1952.00000,207.35753
1954.00000,191.72119
1956.00000,207.68210
1958.00000,206.47356
1960.00000,214.68036
1962.00000,189.53076
1964.00000,138.49435
1966.00000,192.93239
1968.00000,160.87328
1970.00000,134.15538
1972.00000,188.32829
1974.00000,206.20416
1976.00000,198.23096
1978.00000,200.96599
1980.00000,194.85222
1982.00000,164.27522
1984.00000,153.51785
1986.00000,140.85324
1988.00000,124.02115
1990.00000,107.82420
1992.00000,90.57226
1994.00000,84.31400
1996.00000,86.05526
1998.00000,82.68772
2000.00000,125.17104
2002.00000,158.78714
2004.00000,193.95944
2006.00000,187.33479
2008.00000,185.12581
2010.00000,222.72932
2012.00000,258.51956
2014.00000,275.06708
2016.00000,308.22946
2018.00000,361.56323
2020.00000,357.54022
2022.00000,332.92130
2024.00000,361.53369
2026.00000,405.82462
2028.00000,415.96823
2030.00000,405.64734
2032.00000,374.38092
2034.00000,324.51758
2036.00000,369.26727
2038.00000,407.08865
2040.00000,378.00760
2042.00000,347.22284
2044.00000,374.67871
2046.00000,399.56049
2048.00000,404.28323
2050.00000,423.42889
2052.00000,458.93723
2054.00000,426.81406
2056.00000,434.29358
2058.00000,485.41791
2060.00000,477.83725
2062.00000,465.37631
2064.00000,469.45944
2066.00000,457.51660
2068.00000,436.29733
2070.00000,473.71704
2072.00000,517.73517
2074.00000,492.68512
2076.00000,427.44806
2078.00000,415.85214
2080.00000,430.26456
2082.00000,373.39575
2084.00000,340.82486
2086.00000,414.00983
2088.00000,419.65332
2090.00000,375.47299
2092.00000,364.91840
2094.00000,406.33813
2096.00000,441.60455
2098.00000,448.58112
2100.00000,449.16760
2102.00000,469.16391
2104.00000,497.27292
2106.00000,489.23291
2108.00000,477.79935
2110.00000,461.45526
2112.00000,423.58078
2114.00000,392.90372
2116.00000,421.70895
2118.00000,419.42444
2120.00000,384.10449
2122.00000,394.35452
2124.00000,379.77463
2126.00000,384.53552
2128.00000,402.68079
2130.00000,389.16537
2132.00000,376.46579
2134.00000,461.03333
2136.00000,441.97604
2138.00000,344.34717
2140.00000,426.25095
2142.00000,444.29532
2144.00000,379.81335
2146.00000,379.05051
2148.00000,454.36963
2150.00000,406.56912
2152.00000,409.67838
2154.00000,441.25372
2156.00000,423.51157
2158.00000,429.50183
2160.00000,469.21063
2162.00000,471.36246
2164.00000,456.86011
2166.00000,478.32056
2168.00000,451.86295
2170.00000,446.84149
2172.00000,457.89679
2174.00000,457.15076
2176.00000,481.17508
2178.00000,470.24484
2180.00000,455.48346
2182.00000,492.55884
2184.00000,541.32568
2186.00000,476.99478
2188.00000,473.41113
2190.00000,507.52676
2192.00000,465.13889
2194.00000,455.12424
2196.00000,472.33127
2198.00000,459.82172
2200.00000,436.50955
2202.00000,466.76727
2204.00000,474.68198
2206.00000,484.73199
2208.00000,514.38165
2210.00000,538.62488
2212.00000,558.62280
2214.00000,605.67694
2216.00000,648.97614
2218.00000,652.88196
2220.00000,638.74219
2222.00000,630.94092
2224.00000,647.54932
2226.00000,633.91272
2228.00000,546.57446
2230.00000,501.19394
2232.00000,521.09784
2234.00000,513.65863
2236.00000,458.51630
2238.00000,473.00708
2240.00000,460.94592
2242.00000,436.42096
2244.00000,434.51923
2246.00000,423.22546
2248.00000,402.23877
2250.00000,433.21521
2252.00000,464.00717
2254.00000,432.67984
2256.00000,430.72150
2258.00000,434.75885
2260.00000,453.60501
2262.00000,495.92938
2264.00000,525.70233
2266.00000,535.43372
2268.00000,552.78516
2270.00000,603.23730
2272.00000,662.22137
2274.00000,650.32135
2276.00000,576.74487
2278.00000,542.59009
2280.00000,558.03766
2282.00000,502.21240
2284.00000,462.14883
2286.00000,504.39993
2288.00000,550.23230
2290.00000,507.32193
2292.00000,493.84705
2294.00000,461.39182
2296.00000,460.02020
2298.00000,526.74060
2300.00000,517.24628
2302.00000,504.15866
2304.00000,513.08899
2306.00000,524.78125
2308.00000,539.86670
2310.00000,546.93475
2312.00000,444.13837
2314.00000,373.67148
2316.00000,455.74942
2318.00000,402.46881
2320.00000,351.10831
2322.00000,345.38422
2324.00000,329.62930
2326.00000,314.17603
2328.00000,307.24768
2330.00000,318.93039
2332.00000,330.37607
2334.00000,326.29428
2336.00000,340.79831
2338.00000,300.77805
2340.00000,292.85120
2342.00000,348.72940
2344.00000,296.58023
2346.00000,309.91791
2348.00000,352.16595
2350.00000,339.38864
2352.00000,307.11969
2354.00000,277.74841
2356.00000,258.88580
2358.00000,296.47220
2360.00000,359.50842
2362.00000,294.99329
2364.00000,247.28926
2366.00000,272.69266
2368.00000,306.82391
2370.00000,287.29764
2372.00000,230.18137
2374.00000,221.14671
2376.00000,272.45807
2378.00000,304.45581
2380.00000,271.90497
2382.00000,280.77896
2384.00000,277.08441
2386.00000,223.45203
2388.00000,236.87691
2390.00000,215.72127
2392.00000,228.85797
2394.00000,279.40842
2396.00000,261.30219
2398.00000,241.50684
2400.00000,264.78534
2402.00000,245.51314
2404.00000,186.00136
2406.00000,267.29715
2408.00000,279.52750
2410.00000,247.51088
2412.00000,257.63226
2414.00000,260.78149
2416.00000,262.39578
2418.00000,295.30890
2420.00000,312.84131
2422.00000,281.95129
2424.00000,295.05457
2426.00000,270.63971
2428.00000,227.26547
2430.00000,233.34399
2432.00000,255.37447
2434.00000,186.90825
2436.00000,157.36615
2438.00000,181.64091
2440.00000,156.38268
2442.00000,179.00925
2444.00000,172.19620
2446.00000,134.16840
2448.00000,127.09947
2450.00000,144.14230
2452.00000,155.17848
2454.00000,159.47997
2456.00000,154.20154
2458.00000,146.58852
2460.00000,188.87703
2462.00000,150.24182
2464.00000,134.31050
2466.00000,230.21971
2468.00000,166.23447
2470.00000,101.24768
2472.00000,198.48383
2474.00000,293.16083
2476.00000,143.53500
2478.00000,138.58363
2480.00000,217.40712
2482.00000,200.48105
2484.00000,131.13882
2486.00000,181.85043
2488.00000,178.69031
2490.00000,161.47311
2492.00000,224.95912
2494.00000,245.59158
2496.00000,190.00996
2498.00000,170.11838
2500.00000,209.10696
2502.00000,205.05817
2504.00000,162.37894
2506.00000,237.33955
2508.00000,270.79468
2510.00000,139.06488
2512.00000,135.16188
2514.00000,171.93971
2516.00000,142.25330
2518.00000,94.13437
2520.00000,126.47198
2522.00000,144.98795
2524.00000,129.58405
2526.00000,128.21394
2528.00000,130.69873
2530.00000,51.31840
2532.00000,89.40639
2534.00000,131.12592
2536.00000,89.32511
2538.00000,142.02336
2540.00000,143.22906
2542.00000,78.49520
2544.00000,83.15206
2546.00000,172.32869
2548.00000,86.65154
2550.00000,57.90511
2552.00000,115.15722
2554.00000,117.88812
2556.00000,88.78727
2558.00000,72.18654
2560.00000,125.57286
2562.00000,170.76054
2564.00000,100.00489
2566.00000,88.48071
2568.00000,131.58006
2570.00000,130.98827
2572.00000,92.85883
2574.00000,149.79384
2576.00000,168.40601
2578.00000,95.10973
2580.00000,73.54280
2582.00000,194.34702
2584.00000,116.26939
2586.00000,74.33692
2588.00000,140.23604
2590.00000,113.41942
2592.00000,70.23057
2594.00000,63.84988
2596.00000,72.20382
2598.00000,93.38012
2600.00000,165.36902
2602.00000,188.29239
2604.00000,121.66042
2606.00000,77.46439
2608.00000,157.50856
2610.00000,199.29442
2612.00000,140.37038
2614.00000,108.09797
2616.00000,181.02667
2618.00000,209.00859
2620.00000,160.24757
2622.00000,136.29430
2624.00000,188.40410
2626.00000,226.53767
2628.00000,163.09224
2630.00000,163.78200
2632.00000,217.93477
2634.00000,207.95029
2636.00000,224.99254
2638.00000,194.91785
2640.00000,148.54233
2642.00000,151.76555
2644.00000,181.32057
2646.00000,210.24525
2648.00000,202.91844
2650.00000,168.68669
2652.00000,173.35416
2654.00000,248.12614
2656.00000,193.63167
2658.00000,132.76405
2660.00000,186.55656
2662.00000,151.73965
2664.00000,190.45111
2666.00000,248.94870
2668.00000,214.17874
2670.00000,145.33157
2672.00000,187.46672
2674.00000,158.63725
2676.00000,101.87777
2678.00000,175.34967
2680.00000,240.39131
2682.00000,188.53609
2684.00000,157.55347
2686.00000,214.99338
2688.00000,217.84773
2690.00000,177.42870
2692.00000,187.42436
2694.00000,202.24637
2696.00000,145.30962
2698.00000,143.55917
2700.00000,185.67981
2702.00000,225.34813
2704.00000,244.88998
2706.00000,245.35736
2708.00000,210.05226
2710.00000,192.49608
2712.00000,245.65656
2714.00000,328.13275
2716.00000,310.95749
2718.00000,264.87070
2720.00000,250.69223
2722.00000,252.28746
2724.00000,244.91811
2726.00000,245.85390
2728.00000,245.27229
2730.00000,270.45432
2732.00000,331.02997
2734.00000,276.27557
2736.00000,316.75034
2738.00000,352.55865
2740.00000,239.78647
2742.00000,342.74896
2744.00000,389.24918
2746.00000,271.75870
2748.00000,223.74693
2750.00000,379.99219
2752.00000,251.71461
2754.00000,183.64966
2756.00000,312.96649
2758.00000,303.90289
2760.00000,198.78459
2762.00000,245.90083
2764.00000,332.47025
2766.00000,297.28940
2768.00000,287.57825
2770.00000,242.98190
2772.00000,230.39401
2774.00000,271.85794
2776.00000,275.87598
2778.00000,251.39647
2780.00000,228.47005
2782.00000,172.12715
2784.00000,128.84296
2786.00000,250.82973
2788.00000,229.47266
2790.00000,183.48943
2792.00000,237.47757
2794.00000,220.27896
2796.00000,231.94687
2798.00000,244.39011
2800.00000,220.74765
2802.00000,210.88347
2804.00000,273.57571
2806.00000,303.29111
2808.00000,318.98776
2810.00000,362.32745
2812.00000,372.07855
2814.00000,378.98929
2816.00000,365.15872
2818.00000,363.95770
2820.00000,423.96729
2822.00000,443.89984
2824.00000,403.03958
2826.00000,397.36975
2828.00000,452.80652
2830.00000,427.71652
2832.00000,354.83353
2834.00000,349.52420
2836.00000,370.28906
2838.00000,289.02472
2840.00000,270.74335
2842.00000,355.80228
2844.00000,387.38547
2846.00000,297.23370
2848.00000,303.53635
2850.00000,306.64633
2852.00000,310.34512
2854.00000,359.48401
2856.00000,382.87802
2858.00000,330.08835
2860.00000,343.25244
2862.00000,396.80853
2864.00000,395.59134
2866.00000,524.12256
2868.00000,548.44672
2870.00000,455.36832
2872.00000,453.00659
2874.00000,578.41467
2876.00000,542.47681
2878.00000,428.25702
2880.00000,435.86172
2882.00000,515.59955
2884.00000,417.18500
2886.00000,436.94955
2888.00000,529.18890
2890.00000,467.99225
2892.00000,454.86966
2894.00000,538.35608
2896.00000,501.35098
2898.00000,386.67566
2900.00000,477.85873
2902.00000,461.50851
2904.00000,436.31296
2906.00000,472.91919
2908.00000,492.37772
2910.00000,527.18024
2912.00000,448.83096
2914.00000,410.58224
2916.00000,506.45038
2918.00000,503.86823
2920.00000,421.10355
2922.00000,439.10330
2924.00000,492.89581
2926.00000,421.83963
2928.00000,461.05673
2930.00000,463.08902
2932.00000,378.20367
2934.00000,374.21088
2936.00000,531.22015
2938.00000,492.09360
2940.00000,353.57053
2942.00000,379.14502
2944.00000,497.18210
2946.00000,350.92114
2948.00000,454.35092
2950.00000,584.08051
2952.00000,318.06287
2954.00000,370.92999
2956.00000,538.04498
2958.00000,525.92676
2960.00000,445.65268
2962.00000,537.01685
2964.00000,428.42349
2966.00000,384.47488
2968.00000,464.02573
2970.00000,417.39694
2972.00000,426.43210
2974.00000,516.66956
2976.00000,513.31421
2978.00000,419.31778
2980.00000,475.24582
2982.00000,415.28366
2984.00000,495.48657
2986.00000,563.40308
2988.00000,251.82942
2990.00000,370.63495
2992.00000,449.38232
2994.00000,342.28601
2996.00000,369.26242
2998.00000,419.19202
3000.00000,269.05740
3002.00000,255.14287
3004.00000,395.23474
3006.00000,256.04703
3008.00000,293.96738
3010.00000,329.03098
3012.00000,288.60025
3014.00000,323.67987
3016.00000,287.19724
3018.00000,258.85776
3020.00000,265.90253
3022.00000,285.68436
3024.00000,313.54532
3026.00000,267.31354
3028.00000,279.21472
3030.00000,304.00565
3032.00000,222.67247
3034.00000,308.67569
3036.00000,327.97934
3038.00000,265.72324
3040.00000,319.33286
3042.00000,434.68423
3044.00000,291.69342
3046.00000,260.15915
3048.00000,433.41943
3050.00000,375.41705
3052.00000,308.84799
3054.00000,316.85217
3056.00000,391.72409
3058.00000,428.02286
3060.00000,295.28406
3062.00000,464.82178
3064.00000,510.77536
3066.00000,338.27512
3068.00000,613.90100
3070.00000,562.33344
3072.00000,442.36639
3074.00000,575.79279
3076.00000,675.15253
3078.00000,436.63400
3080.00000,403.84045
3082.00000,484.63095
3084.00000,428.64490
3086.00000,520.88190
3088.00000,478.29333
3090.00000,372.89603
3092.00000,384.33243
3094.00000,441.29404
3096.00000,339.38028
3098.00000,345.87460
3100.00000,370.48236
3102.00000,280.01056
3104.00000,413.63165
3106.00000,441.34705
3108.00000,375.14484
3110.00000,348.38147
3112.00000,311.90662
3114.00000,337.48956
3116.00000,468.27493
3118.00000,462.61026
3120.00000,256.68994
3122.00000,375.80792
3124.00000,428.48083
3126.00000,371.27686
3128.00000,376.00833
3130.00000,366.98795
3132.00000,388.01428
3134.00000,388.08887
3136.00000,455.95953
3138.00000,595.59332
3140.00000,380.79404
3142.00000,385.21857
3144.00000,475.25092
3146.00000,339.48618
3148.00000,397.20468
3150.00000,245.68039
3152.00000,334.32483
3154.00000,584.88806
3156.00000,297.76648
3158.00000,273.44186
3160.00000,355.07611
3162.00000,333.21957
3164.00000,325.51526
3166.00000,365.50375
3168.00000,364.01407
3170.00000,386.83444
3172.00000,432.67526
3174.00000,349.32559
3176.00000,257.28885
3178.00000,391.84750
3180.00000,476.46185
3182.00000,228.97054
3184.00000,251.53781
3186.00000,356.14676
3188.00000,375.85062
3190.00000,339.43948
3192.00000,266.79355
3194.00000,241.95920
3196.00000,316.34756
3198.00000,325.30750
3200.00000,222.91890
