300.00000,5.94200
302.00000,7.91344
304.00000,16.79453
306.00000,18.74337
308.00000,13.64753
310.00000,8.31516
312.00000,5.80057
314.00000,3.81348
316.00000,8.28519
318.00000,21.14521
320.00000,30.10563
322.00000,20.82737
324.00000,22.71856
326.00000,49.98793
328.00000,82.21310
330.00000,96.95957
332.00000,117.50298
334.00000,122.40267
336.00000,113.48760
338.00000,127.34962
340.00000,181.05272
342.00000,226.88663
344.00000,246.41174
346.00000,252.92299
348.00000,251.32243
350.00000,214.45303
352.00000,157.07111
354.00000,99.45235
356.00000,58.79329
358.00000,52.61500
360.00000,59.91235
362.00000,68.59889
364.00000,62.69703
366.00000,39.31299
368.00000,48.88055
370.00000,54.02944
372.00000,64.12614
374.00000,87.75521
376.00000,66.97412
378.00000,70.69415
380.00000,72.58920
382.00000,53.59268
384.00000,50.36163
386.00000,41.53001
388.00000,39.09421
390.00000,39.58392
392.00000,34.86629
394.00000,37.60828
396.00000,32.85105
398.00000,29.05892
400.00000,29.21886
402.00000,26.11504
404.00000,31.84934
406.00000,12.84126
408.00000,19.15052
410.00000,66.94950
412.00000,52.58341
414.00000,30.06271
416.00000,24.10262
418.00000,33.37259
420.00000,47.34128
422.00000,33.15800
424.00000,38.28127
426.00000,49.30521
428.00000,57.06414
430.00000,109.68902
432.00000,116.62436
434.00000,93.99010
436.00000,89.51243
438.00000,110.24526
440.00000,152.23979
442.00000,190.08289
444.00000,215.91818
446.00000,230.22559
448.00000,224.62846
450.00000,205.36847
452.00000,190.41013
454.00000,182.17339
456.00000,171.83075
458.00000,166.34821
460.00000,161.93027
462.00000,151.25931
464.00000,132.66122
466.00000,119.25113
468.00000,139.67239
470.00000,168.41774
472.00000,167.16006
474.00000,134.54396
476.00000,111.33633
478.00000,110.73826
480.00000,126.73918
482.00000,136.88930
484.00000,120.82926
486.00000,104.20014
488.00000,86.04202
490.00000,61.79361
492.00000,43.99734
494.00000,47.27004
496.00000,51.85813
498.00000,48.50180
500.00000,44.72636
502.00000,46.61994
504.00000,45.67461
506.00000,44.88488
508.00000,36.35275
510.00000,24.62155
512.00000,47.61922
514.00000,49.18246
516.00000,27.75606
518.00000,27.79268
520.00000,57.38815
522.00000,59.34660
524.00000,46.10191
526.00000,44.87435
528.00000,55.37616
530.00000,61.34540
532.00000,51.79410
534.00000,40.16083
536.00000,38.01599
538.00000,37.40191
540.00000,34.26431
542.00000,31.01812
544.00000,46.52525
546.00000,72.75882
548.00000,54.17277
550.00000,38.33550
552.00000,35.02878
554.00000,32.34535
556.00000,37.43993
558.00000,39.77742
560.00000,19.32696
562.00000,18.06585
564.00000,47.73090
566.00000,12.83803
568.00000,6.42187
570.00000,30.25291
572.00000,42.99323
574.00000,47.89895
576.00000,35.52251
578.00000,56.29958
580.00000,101.48352
582.00000,114.11047
584.00000,96.81360
586.00000,115.54295
588.00000,137.74380
590.00000,136.71112
592.00000,150.91692
594.00000,165.15306
596.00000,167.57663
598.00000,173.99583
600.00000,188.91267
602.00000,177.54300
604.00000,152.81540
606.00000,135.42456
608.00000,145.11443
610.00000,167.12416
612.00000,122.22777
614.00000,89.05695
616.00000,109.65517
618.00000,137.27861
620.00000,131.68542
622.00000,122.56262
624.00000,117.68698
626.00000,106.72126
628.00000,86.68757
630.00000,65.50045
632.00000,64.16326
634.00000,97.90174
636.00000,132.99435
638.00000,122.76677
640.00000,190.97992
642.00000,244.78694
644.00000,235.43036
646.00000,244.34979
648.00000,198.28206
650.00000,137.05949
652.00000,121.91836
654.00000,143.47098
656.00000,145.62518
658.00000,167.50105
660.00000,126.71032
662.00000,116.25325
664.00000,277.51816
666.00000,316.92822
668.00000,382.21716
670.00000,545.13049
672.00000,741.29163
674.00000,1015.46045
676.00000,1499.93494
678.00000,2305.33447
680.00000,3397.37354
682.00000,4497.12061
684.00000,5113.49756
686.00000,4977.35059
688.00000,4185.85010
690.00000,3125.17798
692.00000,2223.28052
694.00000,1614.31812
696.00000,1285.15210
698.00000,1143.14368
700.00000,1079.46826
702.00000,1039.67346
704.00000,985.74432
706.00000,916.05994
708.00000,841.77692
710.00000,758.74512
712.00000,669.54596
714.00000,598.93018
716.00000,562.70850
718.00000,551.04095
720.00000,552.04523
722.00000,605.40735
724.00000,678.90637
726.00000,763.23999
728.00000,940.22034
730.00000,1202.84387
732.00000,1601.30139
734.00000,2207.25684
736.00000,2974.34448
738.00000,3638.75220
740.00000,3924.03613
742.00000,3638.02026
744.00000,2916.04272
746.00000,2193.41992
748.00000,1634.90833
750.00000,1283.62634
752.00000,1060.95886
754.00000,893.13818
756.00000,854.56012
758.00000,835.89349
760.00000,844.15723
762.00000,915.23608
764.00000,1022.71387
766.00000,1289.68811
768.00000,1648.51477
770.00000,2106.88721
772.00000,2701.89380
774.00000,3198.69995
776.00000,3344.69360
778.00000,3031.37061
780.00000,2406.83667
782.00000,1788.26697
784.00000,1322.29053
786.00000,1028.41870
788.00000,853.85107
790.00000,733.33374
792.00000,633.07825
794.00000,524.19043
796.00000,461.68741
798.00000,454.93378
800.00000,429.68301
802.00000,420.32458
804.00000,356.24564
806.00000,294.07333
808.00000,340.80652
810.00000,414.50128
812.00000,515.24634
814.00000,615.33350
816.00000,678.63910
818.00000,695.29938
820.00000,638.10657
822.00000,502.86774
824.00000,362.16644
826.00000,285.16467
828.00000,235.25697
830.00000,200.15060
832.00000,190.61696
834.00000,178.63373
836.00000,140.29730
838.00000,178.00661
840.00000,158.61047
842.00000,66.19943
844.00000,29.52587
846.00000,68.03193
848.00000,91.21711
850.00000,120.71225
852.00000,133.56648
854.00000,66.49575
856.00000,92.37709
858.00000,80.22589
860.00000,41.30048
862.00000,75.62081
864.00000,73.22027
866.00000,63.38333
868.00000,55.51726
870.00000,51.81605
872.00000,71.61752
874.00000,91.38968
876.00000,70.17781
878.00000,60.80883
880.00000,101.58410
882.00000,98.31204
884.00000,61.52483
886.00000,61.82642
888.00000,99.70647
890.00000,92.52876
892.00000,28.35458
894.00000,40.92685
896.00000,79.78472
898.00000,68.22665
900.00000,126.84769
902.00000,149.60139
904.00000,130.61119
906.00000,117.21906
908.00000,119.30149
910.00000,139.98201
912.00000,147.64030
914.00000,144.08119
916.00000,147.90742
918.00000,153.47299
920.00000,171.87378
922.00000,185.02885
924.00000,179.72975
926.00000,160.40887
928.00000,127.29243
930.00000,140.33191
932.00000,143.05452
934.00000,98.45238
936.00000,117.79151
938.00000,158.50191
940.00000,188.77692
942.00000,218.40579
944.00000,240.48692
946.00000,210.85745
948.00000,280.17786
950.00000,385.40814
952.00000,406.63339
954.00000,440.78693
956.00000,513.99286
958.00000,469.46011
960.00000,383.39145
962.00000,396.72000
964.00000,204.24895
966.00000,160.02579
968.00000,213.55263
970.00000,162.54538
972.00000,188.48251
974.00000,219.85143
976.00000,270.20999
978.00000,322.64355
980.00000,312.72861
982.00000,289.18594
984.00000,256.85046
986.00000,182.43646
988.00000,108.48734
990.00000,137.18419
992.00000,168.01790
994.00000,229.67757
996.00000,319.47040
998.00000,373.58121
1000.00000,422.06381
1002.00000,424.70520
1004.00000,349.71713
1006.00000,245.74866
1008.00000,200.31612
1010.00000,179.57040
1012.00000,192.16725
1014.00000,217.50500
1016.00000,183.19020
1018.00000,85.89460
1020.00000,145.16908
1022.00000,233.18269
1024.00000,216.57980
1026.00000,256.03918
1028.00000,283.40054
1030.00000,292.14542
1032.00000,295.57980
1034.00000,270.79782
1036.00000,212.86719
1038.00000,243.02937
1040.00000,245.06471
1042.00000,141.67953
1044.00000,91.35216
1046.00000,85.35735
1048.00000,115.09457
1050.00000,156.44777
1052.00000,178.89183
1054.00000,185.62305
1056.00000,152.05319
1058.00000,196.47704
1060.00000,283.60645
1062.00000,234.86967
1064.00000,327.50986
1066.00000,384.46365
1068.00000,347.53506
1070.00000,365.63480
1072.00000,396.19989
1074.00000,462.30994
1076.00000,569.20416
1078.00000,688.06970
1080.00000,770.14801
1082.00000,764.29865
1084.00000,776.51276
1086.00000,719.18164
1088.00000,517.31702
1090.00000,446.74557
1092.00000,408.04050
1094.00000,346.44351
1096.00000,287.10257
1098.00000,230.90057
1100.00000,179.48239
1102.00000,214.02766
1104.00000,267.62775
1106.00000,244.16199
1108.00000,244.41644
1110.00000,252.16425
1112.00000,222.49651
1114.00000,195.90097
1116.00000,218.43950
1118.00000,144.04054
1120.00000,124.02097
1122.00000,196.81279
1124.00000,208.18417
1126.00000,104.50270
1128.00000,115.41589
1130.00000,211.84270
1132.00000,260.56509
1134.00000,264.93066
1136.00000,296.44641
1138.00000,308.58716
1140.00000,362.96460
1142.00000,470.92819
1144.00000,427.85568
1146.00000,359.20340
1148.00000,334.85037
1150.00000,303.75711
1152.00000,245.24995
1154.00000,289.20557
1156.00000,331.68930
1158.00000,228.85913
1160.00000,103.31920
1162.00000,256.21478
1164.00000,333.29855
1166.00000,293.85599
1168.00000,287.11417
1170.00000,335.97769
1172.00000,370.41113
1174.00000,417.03729
1176.00000,488.82736
1178.00000,586.48547
1180.00000,726.53967
1182.00000,828.84863
1184.00000,969.41339
1186.00000,1126.96375
1188.00000,1169.73950
1190.00000,1200.05286
1192.00000,1279.12646
1194.00000,1391.04443
1196.00000,1556.09558
1198.00000,1817.69763
1200.00000,1946.84424
1202.00000,2155.19629
1204.00000,2459.29590
1206.00000,2676.73755
1208.00000,3153.95581
1210.00000,3507.73413
1212.00000,3550.67212
1214.00000,3369.37476
1216.00000,2959.58691
1218.00000,2425.00171
1220.00000,1905.33508
1222.00000,1507.74500
1224.00000,1235.96936
1226.00000,980.18097
1228.00000,772.61646
1230.00000,667.15662
1232.00000,619.13153
1234.00000,539.90021
1236.00000,536.02991
1238.00000,457.19376
1240.00000,366.48013
1242.00000,442.89517
1244.00000,393.42166
1246.00000,326.53583
1248.00000,387.58948
1250.00000,450.10144
1252.00000,325.56149
1254.00000,423.37003
1256.00000,471.69226
1258.00000,390.70770
1260.00000,457.75070
1262.00000,520.39185
1264.00000,636.76227
1266.00000,803.24841
1268.00000,952.68121
1270.00000,1125.43823
1272.00000,1486.18054
1274.00000,1904.94458
1276.00000,2406.36230
1278.00000,3075.39502
1280.00000,3581.23364
1282.00000,3924.09155
1284.00000,4138.18311
1286.00000,4235.96729
1288.00000,4277.43604
1290.00000,4280.50781
1292.00000,4004.98633
1294.00000,3515.44702
1296.00000,3031.68921
1298.00000,2397.49731
1300.00000,1938.87891
1302.00000,1616.60669
1304.00000,1303.68909
1306.00000,1127.30347
1308.00000,957.12006
1310.00000,792.91608
1312.00000,706.46399
1314.00000,696.44305
1316.00000,675.48462
1318.00000,709.47839
1320.00000,658.55566
1322.00000,609.68555
1324.00000,895.54724
1326.00000,1149.25513
1328.00000,1469.46204
1330.00000,2026.39392
1332.00000,2722.59961
1334.00000,3360.66162
1336.00000,4055.25854
1338.00000,4446.52881
1340.00000,4259.68164
1342.00000,3779.24072
1344.00000,3238.66479
1346.00000,2674.38184
1348.00000,2144.57007
1350.00000,1739.83826
1352.00000,1451.19568
1354.00000,1276.80090
1356.00000,1225.55212
1358.00000,1218.21472
1360.00000,1148.84900
1362.00000,1119.05920
1364.00000,1034.83459
1366.00000,898.55133
1368.00000,792.12445
1370.00000,662.72375
1372.00000,545.24969
1374.00000,475.68488
1376.00000,413.46527
1378.00000,332.54260
1380.00000,367.21365
1382.00000,226.22598
1384.00000,163.19743
1386.00000,430.46616
1388.00000,449.68829
1390.00000,564.62451
1392.00000,529.38171
1394.00000,341.55850
1396.00000,445.24533
1398.00000,311.14587
1400.00000,263.07211
1402.00000,331.20483
1404.00000,266.54407
1406.00000,248.82570
1408.00000,206.89674
1410.00000,174.48248
1412.00000,180.32799
1414.00000,167.90346
1416.00000,171.75967
1418.00000,186.10338
1420.00000,166.68715
1422.00000,143.47832
1424.00000,218.68565
1426.00000,238.35907
1428.00000,247.34000
1430.00000,273.30243
1432.00000,234.12056
1434.00000,224.41554
1436.00000,292.83722
1438.00000,317.98309
1440.00000,304.28326
1442.00000,487.51932
1444.00000,573.77051
1446.00000,562.68549
1448.00000,569.67450
1450.00000,549.60089
1452.00000,421.48740
1454.00000,349.59564
1456.00000,330.89670
1458.00000,289.26233
1460.00000,293.74341
1462.00000,252.14038
1464.00000,232.31523
1466.00000,237.75002
1468.00000,195.09811
1470.00000,225.75548
1472.00000,190.10870
1474.00000,142.80357
1476.00000,218.81709
1478.00000,302.86612
1480.00000,216.25757
1482.00000,156.94223
1484.00000,201.69617
1486.00000,182.43022
1488.00000,139.37708
1490.00000,115.79642
1492.00000,160.70053
1494.00000,242.75919
1496.00000,275.77374
1498.00000,412.70117
1500.00000,524.88513
1502.00000,671.36011
1504.00000,939.02020
1506.00000,874.04980
1508.00000,963.20807
1510.00000,1084.74097
1512.00000,1073.58643
1514.00000,1400.70911
1516.00000,1678.45044
1518.00000,2090.38623
1520.00000,2715.55054
1522.00000,3366.35449
1524.00000,4263.78027
1526.00000,5408.22803
1528.00000,6739.36377
1530.00000,8316.51855
1532.00000,10219.58984
1534.00000,12116.37402
1536.00000,13470.54492
1538.00000,13532.77539
1540.00000,12035.13672
1542.00000,9967.67383
1544.00000,8032.60547
1546.00000,6553.06738
1548.00000,5522.65283
1550.00000,4744.80078
1552.00000,4163.63867
1554.00000,3789.72510
1556.00000,3478.25781
1558.00000,3086.04980
1560.00000,2766.68701
1562.00000,2493.93335
1564.00000,2241.15259
1566.00000,2038.60010
1568.00000,1901.97607
1570.00000,1757.17773
1572.00000,1592.66479
1574.00000,1426.47156
1576.00000,1267.28674
1578.00000,1118.20593
1580.00000,987.62415
1582.00000,872.82489
1584.00000,761.19507
1586.00000,668.32379
1588.00000,661.07263
1590.00000,572.38416
1592.00000,451.26605
1594.00000,456.17706
1596.00000,424.42560
1598.00000,351.23917
1600.00000,320.66937
1602.00000,300.92178
1604.00000,217.31206
1606.00000,299.56580
1608.00000,309.89401
1610.00000,223.10298
1612.00000,218.11868
1614.00000,189.63193
1616.00000,262.93262
1618.00000,284.18091
1620.00000,178.62338
1622.00000,161.08240
1624.00000,202.85922
1626.00000,212.00261
1628.00000,192.70662
1630.00000,179.83090
1632.00000,133.96466
1634.00000,142.74306
1636.00000,188.03551
1638.00000,158.90318
1640.00000,69.37327
1642.00000,190.44603
1644.00000,199.68080
1646.00000,109.22416
1648.00000,149.87709
1650.00000,119.37039
1652.00000,95.22349
1654.00000,109.92513
1656.00000,149.91666
1658.00000,189.77353
1660.00000,128.15570
1662.00000,142.35147
1664.00000,157.98303
1666.00000,88.92343
1668.00000,192.06004
1670.00000,150.33284
1672.00000,116.51006
1674.00000,195.15822
1676.00000,156.14790
1678.00000,121.32851
1680.00000,176.19559
1682.00000,195.63724
1684.00000,128.79948
1686.00000,170.04237
1688.00000,111.92315
1690.00000,80.50101
1692.00000,161.38588
1694.00000,184.94995
1696.00000,164.16367
1698.00000,150.19298
1700.00000,140.02274
1702.00000,128.67307
1704.00000,149.26213
1706.00000,134.13727
1708.00000,170.63850
1710.00000,229.23810
1712.00000,175.57858
1714.00000,169.05861
1716.00000,202.61913
1718.00000,184.25630
1720.00000,139.71010
1722.00000,200.36052
1724.00000,195.80275
1726.00000,184.87405
1728.00000,183.71150
1730.00000,127.57394
1732.00000,196.66461
1734.00000,164.74092
1736.00000,123.28703
1738.00000,214.91399
1740.00000,212.72304
1742.00000,238.55719
1744.00000,233.86128
1746.00000,173.10660
1748.00000,164.19409
1750.00000,198.95706
1752.00000,234.27315
1754.00000,195.43753
1756.00000,166.96014
1758.00000,303.12491
1760.00000,181.74875
1762.00000,131.38481
1764.00000,236.00072
1766.00000,161.89580
1768.00000,170.62376
1770.00000,224.61299
1772.00000,180.64685
1774.00000,102.22025
1776.00000,181.40562
1778.00000,160.21693
1780.00000,175.03622
1782.00000,218.96713
1784.00000,146.48274
1786.00000,238.09023
1788.00000,240.56705
1790.00000,193.36191
1792.00000,238.49687
1794.00000,240.82774
1796.00000,255.41695
1798.00000,226.33084
1800.00000,189.48546
1802.00000,228.02620
1804.00000,215.20859
1806.00000,191.93922
1808.00000,229.82866
1810.00000,260.47467
1812.00000,188.37752
1814.00000,277.78375
1816.00000,272.98383
1818.00000,161.08908
1820.00000,195.33789
1822.00000,196.78264
1824.00000,201.73038
1826.00000,223.53571
1828.00000,224.96318
1830.00000,200.27997
1832.00000,168.10023
1834.00000,223.61115
1836.00000,261.37668
1838.00000,184.92261
1840.00000,241.83704
1842.00000,214.13071
1844.00000,212.93730
1846.00000,277.57745
1848.00000,161.30042
1850.00000,205.03738
1852.00000,218.81068
1854.00000,149.87997
1856.00000,181.50740
1858.00000,205.27008
1860.00000,150.30164
1862.00000,155.20361
1864.00000,225.05197
1866.00000,157.76105
1868.00000,102.82907
1870.00000,193.18600
1872.00000,214.54112
1874.00000,105.94048
1876.00000,339.11783
1878.00000,271.78256
1880.00000,120.93085
1882.00000,218.07043
1884.00000,219.97946
1886.00000,144.03000
1888.00000,201.86099
1890.00000,272.75311
1892.00000,171.34842
1894.00000,133.64166
1896.00000,97.83511
1898.00000,208.15733
1900.00000,302.68896
1902.00000,68.77773
1904.00000,225.10674
1906.00000,325.88742
1908.00000,230.79263
1910.00000,218.54378
1912.00000,130.18370
1914.00000,231.39885
1916.00000,254.44499
1918.00000,151.91011
1920.00000,280.16519
1922.00000,222.47900
1924.00000,171.53720
1926.00000,255.28891
1928.00000,280.25568
1930.00000,152.72142
1932.00000,240.16725
1934.00000,281.46103
1936.00000,176.54933
1938.00000,237.78445
1940.00000,161.62967
1942.00000,254.32082
1944.00000,336.29590
1946.00000,178.02602
1948.00000,270.29907
1950.00000,218.19487
1952.00000,151.79881
1954.00000,257.67322
1956.00000,327.10297
1958.00000,281.26962
1960.00000,280.12985
1962.00000,287.01151
1964.00000,214.88927
1966.00000,209.36635
1968.00000,234.30348
1970.00000,254.80641
1972.00000,230.46649
1974.00000,160.20128
1976.00000,191.58847
1978.00000,269.71017
1980.00000,257.15076
1982.00000,174.98680
1984.00000,202.62198
1986.00000,189.63203
1988.00000,147.78091
1990.00000,148.77585
1992.00000,162.90602
1994.00000,128.84131
1996.00000,120.58332
1998.00000,125.95933
2000.00000,19.95808
2002.00000,10.67381
2004.00000,26.88096
2006.00000,55.11081
2008.00000,59.05425
2010.00000,76.99593
2012.00000,107.09652
2014.00000,121.49492
2016.00000,118.86072
2018.00000,141.30173
2020.00000,162.38863
2022.00000,166.54111
2024.00000,168.54832
2026.00000,177.93370
2028.00000,167.04044
2030.00000,124.38741
2032.00000,98.28165
2034.00000,125.80444
2036.00000,109.67287
2038.00000,107.62951
2040.00000,116.25277
2042.00000,96.30032
2044.00000,114.05460
2046.00000,129.84564
2048.00000,109.53733
2050.00000,86.89979
2052.00000,115.99393
2054.00000,146.58662
2056.00000,162.04111
2058.00000,159.12256
2060.00000,143.45085
2062.00000,147.13080
2064.00000,149.91492
2066.00000,161.90132
2068.00000,181.19315
2070.00000,163.15741
2072.00000,146.81099
2074.00000,197.11301
2076.00000,181.47504
2078.00000,21.33716
2080.00000,130.95143
2082.00000,184.56822
2084.00000,90.46598
2086.00000,83.87234
2088.00000,180.04041
2090.00000,160.92061
2092.00000,109.16320
2094.00000,143.57610
2096.00000,189.35362
2098.00000,208.48145
2100.00000,211.16200
2102.00000,201.37338
2104.00000,198.60492
2106.00000,255.54247
2108.00000,279.59222
2110.00000,278.12436
2112.00000,281.61768
2114.00000,254.42616
2116.00000,251.10837
2118.00000,277.68192
2120.00000,280.56952
2122.00000,245.93831
2124.00000,268.43030
2126.00000,256.18622
2128.00000,232.72772
2130.00000,259.61340
2132.00000,263.58615
2134.00000,241.39339
2136.00000,250.40359
2138.00000,276.44202
2140.00000,257.64615
2142.00000,263.14975
2144.00000,263.04156
2146.00000,264.27448
2148.00000,291.37930
2150.00000,288.76740
2152.00000,259.90094
2154.00000,275.16437
2156.00000,301.97241
2158.00000,238.58763
2160.00000,246.34279
2162.00000,283.05035
2164.00000,277.66745
2166.00000,269.50403
2168.00000,320.46289
2170.00000,311.13193
2172.00000,304.48407
2174.00000,358.97064
2176.00000,343.25259
2178.00000,322.53494
2180.00000,335.95898
2182.00000,345.26749
2184.00000,329.99258
2186.00000,380.27734
2188.00000,409.35370
2190.00000,366.92310
2192.00000,321.33325
2194.00000,346.46497
2196.00000,330.91089
2198.00000,327.13614
2200.00000,384.04248
2202.00000,413.28189
2204.00000,383.95822
2206.00000,401.46436
2208.00000,458.68423
2210.00000,470.96176
2212.00000,487.93216
2214.00000,568.57831
2216.00000,626.92938
2218.00000,614.55933
2220.00000,615.72217
2222.00000,579.50275
2224.00000,511.28214
2226.00000,469.62540
2228.00000,474.33337
2230.00000,448.13968
2232.00000,395.83633
2234.00000,414.93533
2236.00000,477.20969
2238.00000,397.74933
2240.00000,354.21524
2242.00000,341.64572
2244.00000,336.72003
2246.00000,385.18680
2248.00000,374.25461
2250.00000,341.03467
2252.00000,330.43240
2254.00000,333.84695
2256.00000,340.26767
2258.00000,354.45456
2260.00000,363.59210
2262.00000,381.00375
2264.00000,430.01492
2266.00000,438.64740
2268.00000,469.84824
2270.00000,526.47284
2272.00000,526.25635
2274.00000,471.62381
2276.00000,431.00809
2278.00000,440.61664
2280.00000,467.45813
2282.00000,444.04373
2284.00000,371.36996
2286.00000,359.21875
2288.00000,406.92725
2290.00000,394.44827
2292.00000,333.15192
2294.00000,333.43509
2296.00000,349.30002
2298.00000,342.09274
2300.00000,427.93555
2302.00000,397.10193
2304.00000,387.58762
2306.00000,487.38428
2308.00000,486.49344
2310.00000,375.67200
2312.00000,398.65509
2314.00000,408.79602
2316.00000,247.66113
2318.00000,346.51440
2320.00000,357.47244
2322.00000,234.85242
2324.00000,224.75835
2326.00000,334.89893
2328.00000,204.22952
2330.00000,195.13583
2332.00000,362.16388
2334.00000,327.20636
2336.00000,249.39549
2338.00000,301.99802
2340.00000,299.65866
2342.00000,196.82516
2344.00000,332.80884
2346.00000,345.30554
2348.00000,331.68591
2350.00000,388.40585
2352.00000,343.07584
2354.00000,297.20209
2356.00000,339.26016
2358.00000,331.69354
2360.00000,232.29190
2362.00000,321.11874
2364.00000,330.81201
2366.00000,294.45236
2368.00000,335.42160
2370.00000,346.43759
2372.00000,274.64902
2374.00000,294.41785
2376.00000,339.30341
2378.00000,252.03102
2380.00000,261.69000
2382.00000,313.91574
2384.00000,325.91476
2386.00000,315.78958
2388.00000,332.42523
2390.00000,305.85919
2392.00000,304.26324
2394.00000,339.38107
2396.00000,333.21701
2398.00000,328.51334
2400.00000,319.70575
2402.00000,325.37970
2404.00000,348.79657
2406.00000,331.82962
2408.00000,310.88989
2410.00000,331.94641
2412.00000,361.66403
2414.00000,339.76904
2416.00000,342.58340
2418.00000,353.05206
2420.00000,365.02496
2422.00000,382.21039
2424.00000,349.84116
2426.00000,297.90765
2428.00000,268.62567
2430.00000,284.67331
2432.00000,314.03430
2434.00000,242.24414
2436.00000,233.35941
2438.00000,276.64047
2440.00000,217.19453
2442.00000,215.91020
2444.00000,239.52943
2446.00000,223.66203
2448.00000,184.06308
2450.00000,175.35423
2452.00000,154.88115
2454.00000,186.38757
2456.00000,226.51237
2458.00000,165.08151
2460.00000,171.08279
2462.00000,181.60675
2464.00000,159.65190
2466.00000,163.91559
2468.00000,210.76317
2470.00000,235.33032
2472.00000,211.68286
2474.00000,195.06131
2476.00000,254.46562
2478.00000,321.96393
2480.00000,252.65698
2482.00000,193.93527
2484.00000,307.29517
2486.00000,288.84442
2488.00000,254.89830
2490.00000,255.73872
2492.00000,251.89510
2494.00000,261.10867
2496.00000,240.02092
2498.00000,234.48030
2500.00000,241.06670
2502.00000,189.93234
2504.00000,125.25148
2506.00000,199.62222
2508.00000,243.84483
2510.00000,126.53397
2512.00000,120.55180
2514.00000,115.42118
2516.00000,110.65809
2518.00000,146.41451
2520.00000,152.42351
2522.00000,64.55635
2524.00000,89.88467
2526.00000,160.87489
2528.00000,85.63316
2530.00000,47.39826
2532.00000,128.38002
2534.00000,163.58998
2536.00000,89.79343
2538.00000,87.18363
2540.00000,115.72208
2542.00000,118.20994
2544.00000,94.17137
2546.00000,87.11876
2548.00000,124.14449
2550.00000,142.21396
2552.00000,149.10641
2554.00000,130.92534
2556.00000,38.01217
2558.00000,133.68494
2560.00000,170.31721
2562.00000,64.16698
2564.00000,94.34946
2566.00000,137.69728
2568.00000,73.93579
2570.00000,85.62148
2572.00000,226.55569
2574.00000,122.80783
2576.00000,126.63174
2578.00000,185.95367
2580.00000,141.51590
2582.00000,130.71629
2584.00000,190.19275
2586.00000,215.31111
2588.00000,163.71980
2590.00000,120.17944
2592.00000,156.80397
2594.00000,114.91969
2596.00000,106.96227
2598.00000,182.18185
2600.00000,107.49274
2602.00000,80.25292
2604.00000,136.69548
2606.00000,216.80574
2608.00000,244.70709
2610.00000,114.53674
2612.00000,113.19853
2614.00000,216.53085
2616.00000,200.04942
2618.00000,122.04292
2620.00000,168.39688
2622.00000,185.30832
2624.00000,117.27080
2626.00000,149.81749
2628.00000,177.09709
2630.00000,186.27954
2632.00000,172.50363
2634.00000,125.31357
2636.00000,96.98391
2638.00000,105.35301
2640.00000,142.64305
2642.00000,159.05916
2644.00000,125.62878
2646.00000,173.12973
2648.00000,184.76947
2650.00000,136.06361
2652.00000,138.12854
2654.00000,138.95897
2656.00000,131.35791
2658.00000,126.01458
2660.00000,117.36256
2662.00000,100.61070
2664.00000,131.30577
2666.00000,159.66675
2668.00000,134.89636
2670.00000,96.99915
2672.00000,114.31965
2674.00000,112.36365
2676.00000,95.88306
2678.00000,119.08542
2680.00000,134.62192
2682.00000,114.23582
2684.00000,122.42616
2686.00000,150.94621
2688.00000,117.09369
2690.00000,136.74304
2692.00000,155.48959
2694.00000,138.19788
2696.00000,139.91389
2698.00000,175.36821
2700.00000,169.77501
2702.00000,143.70061
2704.00000,142.80812
2706.00000,150.71838
2708.00000,195.50580
2710.00000,188.18362
2712.00000,122.56243
2714.00000,132.90407
2716.00000,265.04660
2718.00000,253.39789
2720.00000,183.43881
2722.00000,239.23157
2724.00000,239.53188
2726.00000,163.33202
2728.00000,136.28622
2730.00000,206.52917
2732.00000,265.59753
2734.00000,243.68893
2736.00000,288.62323
2738.00000,335.22733
2740.00000,263.55530
2742.00000,263.97076
2744.00000,267.48651
2746.00000,263.83762
2748.00000,271.24274
2750.00000,242.71204
2752.00000,195.01552
2754.00000,246.76129
2756.00000,272.52600
2758.00000,140.53746
2760.00000,184.29208
2762.00000,224.79199
2764.00000,202.92250
2766.00000,184.99532
2768.00000,134.88184
2770.00000,136.67706
2772.00000,140.46010
2774.00000,141.87019
2776.00000,199.59874
2778.00000,198.09868
2780.00000,149.16530
2782.00000,144.15256
2784.00000,192.14494
2786.00000,187.35570
2788.00000,232.32224
2790.00000,251.04776
2792.00000,182.40556
2794.00000,146.11536
2796.00000,199.10687
2798.00000,224.52107
2800.00000,235.14532
2802.00000,276.84598
2804.00000,191.13483
2806.00000,197.30771
2808.00000,262.82397
2810.00000,284.73520
2812.00000,350.88281
2814.00000,354.67108
2816.00000,289.24893
2818.00000,250.76862
2820.00000,293.60806
2822.00000,325.88599
2824.00000,374.75232
2826.00000,354.57117
2828.00000,277.25674
2830.00000,355.65070
2832.00000,292.16135
2834.00000,252.99486
2836.00000,280.63870
2838.00000,147.30089
2840.00000,198.11862
2842.00000,213.49567
2844.00000,166.12346
2846.00000,210.01266
2848.00000,183.82869
2850.00000,215.44965
2852.00000,287.78781
2854.00000,310.33902
2856.00000,296.99927
2858.00000,279.52914
2860.00000,314.68753
2862.00000,354.25082
2864.00000,348.08243
2866.00000,415.40100
2868.00000,394.56396
2870.00000,369.61618
2872.00000,431.20279
2874.00000,395.94867
2876.00000,361.53821
2878.00000,352.21140
2880.00000,358.08420
2882.00000,360.86505
2884.00000,270.96469
2886.00000,276.26535
2888.00000,315.33005
2890.00000,247.04720
2892.00000,237.91920
2894.00000,260.79767
2896.00000,258.98456
2898.00000,226.66173
2900.00000,212.44818
2902.00000,272.57489
2904.00000,301.97794
2906.00000,292.66299
2908.00000,311.27728
2910.00000,296.30457
2912.00000,282.50562
2914.00000,276.08344
2916.00000,262.27884
2918.00000,255.85080
2920.00000,269.82974
2922.00000,290.01593
2924.00000,286.53952
2926.00000,265.67941
2928.00000,299.17224
2930.00000,347.02255
2932.00000,378.70309
2934.00000,379.08209
2936.00000,333.20245
2938.00000,347.97556
2940.00000,398.27759
2942.00000,345.72757
2944.00000,191.50351
2946.00000,269.31924
2948.00000,344.18887
2950.00000,308.86444
2952.00000,271.76379
2954.00000,210.02820
2956.00000,314.07990
2958.00000,379.72687
2960.00000,301.48718
2962.00000,331.49417
2964.00000,301.67963
2966.00000,234.89670
2968.00000,275.50696
2970.00000,395.78732
2972.00000,316.39679
2974.00000,229.94432
2976.00000,252.93361
2978.00000,290.31760
2980.00000,262.55060
2982.00000,328.29007
2984.00000,384.87616
2986.00000,329.02200
2988.00000,265.98004
2990.00000,315.84610
2992.00000,278.66769
2994.00000,264.12646
2996.00000,366.03159
2998.00000,244.97884
3000.00000,223.54649
3002.00000,273.82065
3004.00000,256.71704
3006.00000,257.73843
3008.00000,287.03937
3010.00000,296.78735
3012.00000,280.17224
3014.00000,239.45718
3016.00000,143.18016
3018.00000,168.12619
3020.00000,172.07664
3022.00000,138.09723
3024.00000,320.54614
3026.00000,248.25668
3028.00000,160.73286
3030.00000,234.93620
3032.00000,263.15582
3034.00000,268.90994
3036.00000,244.09970
3038.00000,256.84421
3040.00000,318.81476
3042.00000,290.00037
3044.00000,235.45262
3046.00000,212.97099
3048.00000,225.31734
3050.00000,247.29741
3052.00000,256.95074
3054.00000,274.62973
3056.00000,242.71686
3058.00000,224.43898
3060.00000,439.25720
3062.00000,326.64380
3064.00000,267.35815
3066.00000,491.29379
3068.00000,389.19089
3070.00000,262.04828
3072.00000,418.36374
3074.00000,529.46875
3076.00000,302.37100
3078.00000,416.47287
3080.00000,537.90875
3082.00000,378.35846
3084.00000,190.09579
3086.00000,348.31604
3088.00000,412.50803
3090.00000,242.14145
3092.00000,188.94334
3094.00000,426.72913
3096.00000,284.44128
3098.00000,206.41003
3100.00000,242.92943
3102.00000,186.02933
3104.00000,337.06760
3106.00000,274.75742
3108.00000,161.32336
3110.00000,266.04971
3112.00000,383.31082
3114.00000,271.33646
3116.00000,225.69066
3118.00000,293.66739
3120.00000,267.88571
3122.00000,255.45184
3124.00000,260.66025
3126.00000,206.70757
3128.00000,142.36931
3130.00000,226.24469
3132.00000,307.44659
3134.00000,299.29602
3136.00000,237.91324
3138.00000,193.99776
3140.00000,182.13034
3142.00000,233.96437
3144.00000,256.53970
3146.00000,205.17889
3148.00000,225.88815
3150.00000,292.83444
3152.00000,260.13052
3154.00000,190.80206
3156.00000,284.10562
3158.00000,359.02945
3160.00000,278.88318
3162.00000,216.91464
3164.00000,313.14288
3166.00000,291.14011
3168.00000,125.75897
3170.00000,130.63815
3172.00000,343.53027
3174.00000,356.03302
3176.00000,179.86993
3178.00000,234.16464
3180.00000,426.15240
3182.00000,371.69733
3184.00000,328.68909
3186.00000,305.06018
3188.00000,276.26880
3190.00000,214.13260
3192.00000,138.08922
3194.00000,387.11569
3196.00000,415.79596
3198.00000,180.71478
3200.00000,292.99405
