300.00000,6.45690
302.00000,2.18529
304.00000,7.25173
306.00000,16.25860
308.00000,23.54293
310.00000,24.83317
312.00000,19.22606
314.00000,10.06332
316.00000,4.94990
318.00000,14.76084
320.00000,38.66070
322.00000,57.18022
324.00000,69.18198
326.00000,79.77455
328.00000,87.92207
330.00000,97.09584
332.00000,131.67047
334.00000,152.60284
336.00000,150.74860
338.00000,166.29889
340.00000,224.19193
342.00000,271.44638
344.00000,281.31644
346.00000,273.17480
348.00000,261.67590
350.00000,207.17941
352.00000,164.19888
354.00000,149.96901
356.00000,131.62978
358.00000,102.84791
360.00000,86.78192
362.00000,87.83298
364.00000,88.06017
366.00000,78.27679
368.00000,83.42109
370.00000,74.20889
372.00000,59.71570
374.00000,64.36624
376.00000,68.14136
378.00000,73.56651
380.00000,65.14216
382.00000,44.26124
384.00000,35.91620
386.00000,41.20624
388.00000,52.89067
390.00000,56.51796
392.00000,41.06835
394.00000,17.06631
396.00000,20.19740
398.00000,22.80678
400.00000,15.95560
402.00000,21.77828
404.00000,12.67648
406.00000,29.87479
408.00000,45.84781
410.00000,30.02817
412.00000,35.75130
414.00000,47.88672
416.00000,61.96066
418.00000,70.41306
420.00000,59.83354
422.00000,45.75642
424.00000,49.89453
426.00000,50.02129
428.00000,37.92535
430.00000,51.43856
432.00000,56.40154
434.00000,67.18883
436.00000,96.10590
438.00000,123.77106
440.00000,138.64641
442.00000,131.95981
444.00000,127.07842
446.00000,135.49109
448.00000,130.57857
450.00000,125.42539
452.00000,137.17468
454.00000,145.66258
456.00000,123.48472
458.00000,99.83469
460.00000,91.40812
462.00000,92.55001
464.00000,93.05946
466.00000,96.48030
468.00000,113.74818
470.00000,109.86179
472.00000,80.46950
474.00000,68.33076
476.00000,95.29375
478.00000,130.41142
480.00000,133.44096
482.00000,115.43536
484.00000,121.33004
486.00000,106.78412
488.00000,78.46124
490.00000,66.71590
492.00000,71.74479
494.00000,59.04232
496.00000,41.25013
498.00000,31.78871
500.00000,42.68099
502.00000,76.48074
504.00000,84.47205
506.00000,83.93775
508.00000,83.91844
510.00000,77.00977
512.00000,88.06245
514.00000,89.52459
516.00000,75.57729
518.00000,60.87120
520.00000,54.14714
522.00000,64.27826
524.00000,107.65414
526.00000,142.68289
528.00000,127.97468
530.00000,118.48194
532.00000,122.21852
534.00000,114.24071
536.00000,90.99809
538.00000,79.28738
540.00000,75.83945
542.00000,76.37523
544.00000,96.90078
546.00000,124.16035
548.00000,92.04271
550.00000,61.44267
552.00000,48.54389
554.00000,52.21304
556.00000,81.39112
558.00000,74.90504
560.00000,56.82514
562.00000,56.65833
564.00000,73.02921
566.00000,91.83791
568.00000,62.49804
570.00000,38.46289
572.00000,49.00927
574.00000,40.62487
576.00000,36.13058
578.00000,35.55138
580.00000,30.81210
582.00000,26.34980
584.00000,32.38442
586.00000,35.80405
588.00000,40.88552
590.00000,53.64216
592.00000,64.97608
594.00000,67.12012
596.00000,70.14116
598.00000,70.57136
600.00000,68.68118
602.00000,87.29593
604.00000,101.93984
606.00000,103.47858
608.00000,107.86375
610.00000,122.20589
612.00000,112.01694
614.00000,88.70252
616.00000,91.08958
618.00000,113.90660
620.00000,98.06770
622.00000,90.70644
624.00000,86.64914
626.00000,77.96405
628.00000,80.29206
630.00000,63.07582
632.00000,56.60707
634.00000,51.46063
636.00000,59.06167
638.00000,141.91261
640.00000,148.62483
642.00000,157.63625
644.00000,205.74274
646.00000,189.57538
648.00000,171.88852
650.00000,141.71556
652.00000,108.87298
654.00000,101.14905
656.00000,112.32603
658.00000,151.88876
660.00000,162.66992
662.00000,159.71869
664.00000,222.63872
666.00000,304.75461
668.00000,366.36224
670.00000,471.46469
672.00000,669.59027
674.00000,927.00098
676.00000,1373.65930
678.00000,2092.84326
680.00000,3064.11060
682.00000,4064.48291
684.00000,4605.79004
686.00000,4456.31445
688.00000,3727.25708
690.00000,2775.80957
692.00000,1980.19348
694.00000,1435.34656
696.00000,1110.81042
698.00000,949.25519
700.00000,892.58203
702.00000,875.28333
704.00000,857.59747
706.00000,820.19611
708.00000,753.50647
710.00000,657.02716
712.00000,557.54376
714.00000,516.39136
716.00000,512.22412
718.00000,492.15964
720.00000,516.02423
722.00000,513.76373
724.00000,538.42603
726.00000,657.54462
728.00000,818.59491
730.00000,1059.92102
732.00000,1410.40845
734.00000,1939.22327
736.00000,2642.39526
738.00000,3253.06543
740.00000,3512.30908
742.00000,3261.83691
744.00000,2634.48022
746.00000,2001.35388
748.00000,1470.30078
750.00000,1144.23975
752.00000,971.91931
754.00000,831.91577
756.00000,779.19415
758.00000,745.16260
760.00000,747.50262
762.00000,821.08124
764.00000,937.20056
766.00000,1149.32813
768.00000,1433.63721
770.00000,1850.64868
772.00000,2415.71729
774.00000,2844.69360
776.00000,2966.11548
778.00000,2694.33081
780.00000,2125.19873
782.00000,1549.31372
784.00000,1182.91846
786.00000,956.54474
788.00000,771.74591
790.00000,629.12219
792.00000,550.63031
794.00000,506.45676
796.00000,470.11752
798.00000,429.88904
800.00000,390.43927
802.00000,382.31253
804.00000,374.53217
806.00000,351.20062
808.00000,362.09070
810.00000,466.66849
812.00000,563.81726
814.00000,655.23364
816.00000,743.50659
818.00000,741.16864
820.00000,643.46466
822.00000,542.13281
824.00000,444.30731
826.00000,321.01511
828.00000,245.11841
830.00000,204.27094
832.00000,181.29369
834.00000,178.08403
836.00000,184.49953
838.00000,155.80312
840.00000,155.19397
842.00000,153.95497
844.00000,125.36104
846.00000,181.56105
848.00000,164.03061
850.00000,131.83823
852.00000,134.27576
854.00000,76.64886
856.00000,51.24426
858.00000,95.43687
860.00000,119.10911
862.00000,77.06536
864.00000,88.79201
866.00000,95.71796
868.00000,80.59753
870.00000,53.21127
872.00000,25.45197
874.00000,63.43094
876.00000,90.63199
878.00000,117.45481
880.00000,138.52309
882.00000,29.53164
884.00000,32.16283
886.00000,80.52031
888.00000,87.69259
890.00000,116.09835
892.00000,62.27610
894.00000,44.90902
896.00000,97.63502
898.00000,128.27756
900.00000,103.29491
902.00000,100.65195
904.00000,117.46665
906.00000,116.01933
908.00000,105.61572
910.00000,129.56775
912.00000,140.84923
914.00000,126.43214
916.00000,122.23743
918.00000,141.42322
920.00000,143.87399
922.00000,125.56915
924.00000,134.89157
926.00000,180.84377
928.00000,150.21091
930.00000,129.26978
932.00000,153.79367
934.00000,171.47729
936.00000,153.01366
938.00000,116.01978
940.00000,162.80936
942.00000,224.88513
944.00000,168.89442
946.00000,180.92963
948.00000,233.82179
950.00000,282.44632
952.00000,322.59946
954.00000,344.75998
956.00000,370.73016
958.00000,351.50150
960.00000,302.03299
962.00000,271.52011
964.00000,177.24892
966.00000,88.02885
968.00000,67.22445
970.00000,80.71688
972.00000,66.37733
974.00000,110.72134
976.00000,180.01961
978.00000,238.65111
980.00000,276.80698
982.00000,221.70447
984.00000,190.51320
986.00000,153.82193
988.00000,100.12347
990.00000,149.65877
992.00000,120.46568
994.00000,150.01874
996.00000,258.24677
998.00000,298.81000
1000.00000,367.25577
1002.00000,387.16638
1004.00000,349.74512
1006.00000,298.87076
1008.00000,233.81969
1010.00000,180.76030
1012.00000,161.09349
1014.00000,162.38609
1016.00000,154.78485
1018.00000,133.75487
1020.00000,113.74410
1022.00000,122.56473
1024.00000,170.09758
1026.00000,217.47632
1028.00000,198.09843
1030.00000,188.97412
1032.00000,233.27534
1034.00000,256.74414
1036.00000,198.06239
1038.00000,221.37508
1040.00000,210.41142
1042.00000,130.60320
1044.00000,202.55554
1046.00000,219.40092
1048.00000,222.27989
1050.00000,243.62120
1052.00000,229.52466
1054.00000,223.13953
1056.00000,209.89470
1058.00000,229.45006
1060.00000,259.39346
1062.00000,229.65210
1064.00000,296.73148
1066.00000,322.64978
1068.00000,277.75638
1070.00000,277.96173
1072.00000,296.47134
1074.00000,363.38956
1076.00000,484.19260
1078.00000,611.86658
1080.00000,703.55890
1082.00000,789.27026
1084.00000,750.16510
1086.00000,633.77557
1088.00000,547.65149
1090.00000,395.71417
1092.00000,330.71375
1094.00000,302.97214
1096.00000,250.37881
1098.00000,232.53143
1100.00000,149.21977
1102.00000,105.45352
1104.00000,158.60744
1106.00000,214.28574
1108.00000,185.49197
1110.00000,201.13646
1112.00000,208.69081
1114.00000,176.68950
1116.00000,191.42067
1118.00000,158.75519
1120.00000,145.15448
1122.00000,168.15926
1124.00000,168.94810
1126.00000,151.97487
1128.00000,165.10268
1130.00000,181.93660
1132.00000,170.50194
1134.00000,163.44284
1136.00000,204.98170
1138.00000,208.83258
1140.00000,245.36539
1142.00000,353.27332
1144.00000,324.47552
1146.00000,301.32846
1148.00000,301.96057
1150.00000,266.97839
1152.00000,221.61443
1154.00000,244.70367
1156.00000,262.63181
1158.00000,221.20226
1160.00000,188.96590
1162.00000,257.08026
1164.00000,262.51294
1166.00000,246.15610
1168.00000,294.55450
1170.00000,349.06284
1172.00000,318.26306
1174.00000,346.70023
1176.00000,455.63019
1178.00000,537.86194
1180.00000,582.77844
1182.00000,697.31512
1184.00000,828.23267
1186.00000,919.85583
1188.00000,1001.61359
1190.00000,1057.04614
1192.00000,1100.33472
1194.00000,1191.80396
1196.00000,1374.58984
1198.00000,1602.03467
1200.00000,1768.47510
1202.00000,1959.21118
1204.00000,2177.62109
1206.00000,2384.30347
1208.00000,2795.41333
1210.00000,3078.31934
1212.00000,3123.15308
1214.00000,3015.82739
1216.00000,2691.89014
1218.00000,2215.87207
1220.00000,1748.23804
1222.00000,1383.52576
1224.00000,1116.29614
1226.00000,935.73969
1228.00000,765.80292
1230.00000,611.06183
1232.00000,530.27148
1234.00000,515.05701
1236.00000,457.68433
1238.00000,416.80319
1240.00000,377.95129
1242.00000,276.51495
1244.00000,264.49698
1246.00000,286.45642
1248.00000,298.32224
1250.00000,293.06128
1252.00000,261.06158
1254.00000,287.89664
1256.00000,331.09927
1258.00000,389.61325
1260.00000,497.75769
1262.00000,565.33264
1264.00000,680.28943
1266.00000,818.26117
1268.00000,911.88220
1270.00000,1032.25415
1272.00000,1318.16455
1274.00000,1756.07581
1276.00000,2259.91577
1278.00000,2752.97363
1280.00000,3174.36987
1282.00000,3487.03564
1284.00000,3652.89014
1286.00000,3719.70630
1288.00000,3803.55322
1290.00000,3826.88745
1292.00000,3594.90601
1294.00000,3165.07715
1296.00000,2708.55786
1298.00000,2144.56567
1300.00000,1696.92114
1302.00000,1391.91931
1304.00000,1143.81360
1306.00000,953.70624
1308.00000,768.51483
1310.00000,704.49792
1312.00000,676.53528
1314.00000,572.87744
1316.00000,628.13696
1318.00000,604.58728
1320.00000,581.65100
1322.00000,648.26648
1324.00000,681.55609
1326.00000,975.97205
1328.00000,1343.39648
1330.00000,1718.33459
1332.00000,2277.19824
1334.00000,2972.30029
1336.00000,3546.75830
1338.00000,3802.17773
1340.00000,3706.50220
1342.00000,3338.76929
1344.00000,2770.21851
1346.00000,2277.60620
1348.00000,1905.87158
1350.00000,1510.06042
1352.00000,1157.28369
1354.00000,1041.95642
1356.00000,1042.57410
1358.00000,996.58630
1360.00000,954.95044
1362.00000,946.93341
1364.00000,860.53009
1366.00000,729.61407
1368.00000,658.13428
1370.00000,578.24194
1372.00000,492.87225
1374.00000,441.87793
1376.00000,394.29849
1378.00000,303.04245
1380.00000,291.88586
1382.00000,247.86751
1384.00000,242.74159
1386.00000,348.95465
1388.00000,341.64059
1390.00000,475.08594
1392.00000,545.55975
1394.00000,427.59903
1396.00000,380.02844
1398.00000,351.03107
1400.00000,279.45676
1402.00000,239.78497
1404.00000,265.13983
1406.00000,221.35439
1408.00000,217.69339
1410.00000,140.70848
1412.00000,55.11887
1414.00000,173.52832
1416.00000,161.94704
1418.00000,138.30289
1420.00000,140.12068
1422.00000,112.37553
1424.00000,172.91972
1426.00000,228.29529
1428.00000,166.51985
1430.00000,125.46856
1432.00000,250.20126
1434.00000,183.12483
1436.00000,190.12154
1438.00000,285.36618
1440.00000,309.79987
1442.00000,419.12503
1444.00000,553.88824
1446.00000,555.11633
1448.00000,462.08640
1450.00000,435.74594
1452.00000,372.04041
1454.00000,314.69022
1456.00000,292.60809
1458.00000,270.94019
1460.00000,232.54974
1462.00000,215.36891
1464.00000,176.82336
1466.00000,167.29680
1468.00000,229.53450
1470.00000,131.13841
1472.00000,128.51706
1474.00000,205.45898
1476.00000,201.38931
1478.00000,222.86407
1480.00000,242.11446
1482.00000,225.61601
1484.00000,188.65913
1486.00000,149.68420
1488.00000,92.11160
1490.00000,167.44756
1492.00000,173.56398
1494.00000,81.56241
1496.00000,303.06296
1498.00000,403.04010
1500.00000,473.81793
1502.00000,658.91010
1504.00000,817.61780
1506.00000,888.59717
1508.00000,853.51031
1510.00000,896.72119
1512.00000,1081.13831
1514.00000,1219.00806
1516.00000,1510.66455
1518.00000,1912.96680
1520.00000,2424.31519
1522.00000,3090.77686
1524.00000,3753.39575
1526.00000,4814.76660
1528.00000,6052.65381
1530.00000,7295.21680
1532.00000,8975.91602
1534.00000,10646.56836
1536.00000,11806.96289
1538.00000,11858.40430
1540.00000,10561.32520
1542.00000,8729.82715
1544.00000,7043.37793
1546.00000,5772.65674
1548.00000,4821.43555
1550.00000,4039.70044
1552.00000,3650.10815
1554.00000,3275.10132
1556.00000,2876.00610
1558.00000,2673.99292
1560.00000,2313.17554
1562.00000,2128.10107
1564.00000,1995.34790
1566.00000,1725.77405
1568.00000,1570.48608
1570.00000,1497.23682
1572.00000,1426.55798
1574.00000,1311.22974
1576.00000,1140.77966
1578.00000,947.70282
1580.00000,837.34705
1582.00000,785.61646
1584.00000,679.54596
1586.00000,518.75085
1588.00000,529.89117
1590.00000,491.96527
1592.00000,393.31726
1594.00000,393.81918
1596.00000,301.79453
1598.00000,202.28654
1600.00000,278.79141
1602.00000,371.78543
1604.00000,187.36293
1606.00000,212.62558
1608.00000,228.97382
1610.00000,170.13185
1612.00000,228.37238
1614.00000,241.66701
1616.00000,154.34167
1618.00000,124.15502
1620.00000,185.88399
1622.00000,181.91948
1624.00000,202.12057
1626.00000,207.70088
1628.00000,144.12758
1630.00000,84.17251
1632.00000,168.23840
1634.00000,238.47879
1636.00000,168.41124
1638.00000,76.64206
1640.00000,145.77534
1642.00000,176.54393
1644.00000,153.82083
1646.00000,144.41750
1648.00000,149.08800
1650.00000,123.98254
1652.00000,177.46829
1654.00000,210.23987
1656.00000,170.01407
1658.00000,174.62923
1660.00000,183.79347
1662.00000,176.16559
1664.00000,192.34898
1666.00000,212.27818
1668.00000,129.34587
1670.00000,125.08616
1672.00000,169.46628
1674.00000,176.92134
1676.00000,176.18282
1678.00000,164.20955
1680.00000,142.77568
1682.00000,84.19585
1684.00000,46.13813
1686.00000,169.48256
1688.00000,217.61217
1690.00000,146.23744
1692.00000,115.34010
1694.00000,192.88080
1696.00000,159.97653
1698.00000,148.36566
1700.00000,209.72939
1702.00000,238.07590
1704.00000,193.91486
1706.00000,146.53593
1708.00000,144.86848
1710.00000,190.30786
1712.00000,220.17151
1714.00000,138.50110
1716.00000,144.02180
1718.00000,155.86302
1720.00000,105.90553
1722.00000,230.82890
1724.00000,152.83292
1726.00000,128.47556
1728.00000,204.22006
1730.00000,81.38521
1732.00000,131.38280
1734.00000,134.09325
1736.00000,106.04477
1738.00000,164.77582
1740.00000,128.13870
1742.00000,153.35341
1744.00000,147.21722
1746.00000,138.71152
1748.00000,241.92290
1750.00000,172.89937
1752.00000,226.11659
1754.00000,234.20621
1756.00000,105.72981
1758.00000,285.35898
1760.00000,191.66071
1762.00000,109.87965
1764.00000,207.52870
1766.00000,188.96552
1768.00000,218.54944
1770.00000,174.31824
1772.00000,117.63045
1774.00000,156.94783
1776.00000,174.19597
1778.00000,144.85451
1780.00000,160.16479
1782.00000,152.76369
1784.00000,50.88348
1786.00000,116.12833
1788.00000,137.09981
1790.00000,119.54528
1792.00000,142.80508
1794.00000,103.03573
1796.00000,172.44002
1798.00000,223.52235
1800.00000,174.53212
1802.00000,146.61249
1804.00000,187.90324
1806.00000,146.95367
1808.00000,103.40736
1810.00000,178.00110
1812.00000,243.69781
1814.00000,147.28267
1816.00000,106.40974
1818.00000,158.95345
1820.00000,154.62971
1822.00000,201.95824
1824.00000,183.18350
1826.00000,211.12726
1828.00000,274.24243
1830.00000,128.00113
1832.00000,131.57623
1834.00000,208.88814
1836.00000,201.80728
1838.00000,157.78435
1840.00000,171.34357
1842.00000,159.12027
1844.00000,166.69104
1846.00000,231.04083
1848.00000,242.68692
1850.00000,192.34492
1852.00000,244.48706
1854.00000,275.23148
1856.00000,163.01743
1858.00000,257.53766
1860.00000,226.87149
1862.00000,203.85085
1864.00000,267.44473
1866.00000,136.83511
1868.00000,201.34352
1870.00000,179.65302
1872.00000,108.80764
1874.00000,241.17322
1876.00000,214.07385
1878.00000,99.83292
1880.00000,131.05157
1882.00000,231.69702
1884.00000,140.35005
1886.00000,154.58618
1888.00000,209.80171
1890.00000,177.72005
1892.00000,140.11438
1894.00000,240.69170
1896.00000,197.56026
1898.00000,133.41205
1900.00000,173.90408
1902.00000,169.17606
1904.00000,235.11404
1906.00000,251.98685
1908.00000,227.75858
1910.00000,246.74284
1912.00000,202.95773
1914.00000,171.32275
1916.00000,180.46068
1918.00000,180.14322
1920.00000,153.99445
1922.00000,189.37035
1924.00000,100.98807
1926.00000,50.84413
1928.00000,190.90678
1930.00000,134.11432
1932.00000,69.62942
1934.00000,69.34997
1936.00000,97.61623
1938.00000,148.30276
1940.00000,149.02840
1942.00000,132.50349
1944.00000,129.34224
1946.00000,145.30038
1948.00000,193.41164
1950.00000,227.29257
1952.00000,195.44769
1954.00000,177.02707
1956.00000,251.94923
1958.00000,205.71642
1960.00000,165.91995
1962.00000,191.38741
1964.00000,206.63452
1966.00000,198.41866
1968.00000,170.28085
1970.00000,221.89012
1972.00000,277.66437
1974.00000,180.39381
1976.00000,145.08067
1978.00000,136.94995
1980.00000,171.32703
1982.00000,230.11871
1984.00000,151.36732
1986.00000,145.54996
1988.00000,148.30142
1990.00000,114.92110
1992.00000,139.08894
1994.00000,127.51028
1996.00000,194.39336
1998.00000,202.73871
2000.00000,14.31168
2002.00000,32.45310
2004.00000,56.66068
2006.00000,63.61205
2008.00000,51.27874
2010.00000,56.17830
2012.00000,74.28755
2014.00000,107.55735
2016.00000,149.48766
2018.00000,136.27966
2020.00000,129.41156
2022.00000,143.05629
2024.00000,141.62442
2026.00000,125.92996
2028.00000,120.14536
2030.00000,146.70929
2032.00000,148.53259
2034.00000,78.47330
2036.00000,91.90402
2038.00000,105.12405
2040.00000,67.86008
2042.00000,59.13900
2044.00000,125.18384
2046.00000,108.09629
2048.00000,73.43226
2050.00000,98.21900
2052.00000,94.21622
2054.00000,96.81712
2056.00000,151.07925
2058.00000,169.33968
2060.00000,87.24889
2062.00000,80.81050
2064.00000,84.36781
2066.00000,60.58635
2068.00000,51.23277
2070.00000,76.08923
2072.00000,86.78615
2074.00000,64.26361
2076.00000,44.27554
2078.00000,62.60806
2080.00000,79.71454
2082.00000,92.01865
2084.00000,100.22717
2086.00000,87.55679
2088.00000,44.98409
2090.00000,34.20330
2092.00000,55.46127
2094.00000,66.42100
2096.00000,50.82605
2098.00000,47.93752
2100.00000,67.89259
2102.00000,87.20338
2104.00000,84.35443
2106.00000,76.94844
2108.00000,99.12833
2110.00000,108.75745
2112.00000,83.54436
2114.00000,81.61286
2116.00000,96.91792
2118.00000,82.40880
2120.00000,62.89318
2122.00000,87.36739
2124.00000,88.67117
2126.00000,85.48494
2128.00000,91.63131
2130.00000,99.12072
2132.00000,109.33492
2134.00000,117.33389
2136.00000,118.11995
2138.00000,117.29565
2140.00000,122.06305
2142.00000,117.39869
2144.00000,98.43223
2146.00000,92.98138
2148.00000,117.35631
2150.00000,132.89226
2152.00000,128.75388
2154.00000,114.75596
2156.00000,97.18446
2158.00000,81.99309
2160.00000,102.94270
2162.00000,121.51617
2164.00000,95.49527
2166.00000,48.15784
2168.00000,56.45008
2170.00000,96.71282
2172.00000,89.27162
2174.00000,49.14991
2176.00000,87.35995
2178.00000,108.49145
2180.00000,97.81911
2182.00000,105.15666
2184.00000,137.88579
2186.00000,131.07254
2188.00000,162.31978
2190.00000,203.52226
2192.00000,181.08113
2194.00000,157.41591
2196.00000,190.24469
2198.00000,232.19896
2200.00000,226.62863
2202.00000,197.72421
2204.00000,208.77342
2206.00000,204.07520
2208.00000,233.63831
2210.00000,334.59897
2212.00000,325.57898
2214.00000,324.77664
2216.00000,358.25909
2218.00000,352.64240
2220.00000,299.98135
2222.00000,283.20770
2224.00000,253.44661
2226.00000,234.09731
2228.00000,268.99887
2230.00000,192.11911
2232.00000,115.26990
2234.00000,138.60065
2236.00000,169.97610
2238.00000,72.97754
2240.00000,102.25285
2242.00000,113.88640
2244.00000,50.17525
2246.00000,108.50917
2248.00000,153.34087
2250.00000,151.22377
2252.00000,124.67897
2254.00000,102.24979
2256.00000,113.30663
2258.00000,124.47806
2260.00000,131.20793
2262.00000,146.62335
2264.00000,177.33521
2266.00000,237.75201
2268.00000,271.14108
2270.00000,270.50174
2272.00000,277.13391
2274.00000,274.78909
2276.00000,249.52722
2278.00000,198.70290
2280.00000,156.15865
2282.00000,170.46660
2284.00000,190.51196
2286.00000,156.50612
2288.00000,111.55210
2290.00000,127.53461
2292.00000,122.93661
2294.00000,108.98285
2296.00000,113.18859
2298.00000,132.60435
2300.00000,149.70473
2302.00000,162.35007
2304.00000,183.84781
2306.00000,188.99089
2308.00000,156.21857
2310.00000,182.49734
2312.00000,158.04665
2314.00000,126.83154
2316.00000,170.09373
2318.00000,103.86151
2320.00000,64.27710
2322.00000,98.62150
2324.00000,107.69479
2326.00000,46.45200
2328.00000,89.14144
2330.00000,97.35471
2332.00000,41.53380
2334.00000,74.26225
2336.00000,130.18576
2338.00000,72.35519
2340.00000,33.19720
2342.00000,111.07414
2344.00000,111.74289
2346.00000,117.12601
2348.00000,132.13513
2350.00000,130.51381
2352.00000,121.06895
2354.00000,84.76363
2356.00000,94.44514
2358.00000,148.06628
2360.00000,171.98608
2362.00000,146.52457
2364.00000,118.64715
2366.00000,123.26752
2368.00000,149.31821
2370.00000,148.27267
2372.00000,94.85735
2374.00000,122.38387
2376.00000,154.37479
2378.00000,84.72047
2380.00000,160.64381
2382.00000,147.13986
2384.00000,75.14238
2386.00000,94.07612
2388.00000,122.46935
2390.00000,151.67479
2392.00000,141.25548
2394.00000,129.98619
2396.00000,177.76076
2398.00000,166.48074
2400.00000,132.55417
2402.00000,166.33112
2404.00000,231.54680
2406.00000,172.92250
2408.00000,122.35309
2410.00000,216.14204
2412.00000,291.55649
2414.00000,146.48169
2416.00000,198.43340
2418.00000,276.06738
2420.00000,205.27103
2422.00000,117.15249
2424.00000,158.72160
2426.00000,101.15650
2428.00000,70.02815
2430.00000,153.68555
2432.00000,114.35439
2434.00000,88.20867
2436.00000,113.72233
2438.00000,140.15482
2440.00000,133.03766
2442.00000,116.29486
2444.00000,147.41122
2446.00000,173.30836
2448.00000,158.52499
2450.00000,182.78600
2452.00000,173.89856
2454.00000,122.34935
2456.00000,100.07440
2458.00000,137.95505
2460.00000,125.49958
2462.00000,159.31656
2464.00000,195.00565
2466.00000,125.07209
2468.00000,67.83715
2470.00000,139.17093
2472.00000,134.66844
2474.00000,66.56937
2476.00000,196.87657
2478.00000,132.87244
2480.00000,94.69660
2482.00000,172.65096
2484.00000,152.47557
2486.00000,86.21612
2488.00000,170.74553
2490.00000,224.54547
2492.00000,128.27473
2494.00000,133.71503
2496.00000,111.27482
2498.00000,103.32119
2500.00000,153.22255
2502.00000,179.92053
2504.00000,147.96123
2506.00000,138.72913
2508.00000,141.95035
2510.00000,116.69394
2512.00000,113.23432
2514.00000,98.97356
2516.00000,88.01598
2518.00000,95.56749
2520.00000,97.04446
2522.00000,87.69003
2524.00000,94.74637
2526.00000,95.92142
2528.00000,66.90540
2530.00000,63.77490
2532.00000,77.28321
2534.00000,97.89896
2536.00000,116.00867
2538.00000,113.63655
2540.00000,102.54247
2542.00000,97.19421
2544.00000,86.94794
2546.00000,78.28953
2548.00000,122.96161
2550.00000,86.70892
2552.00000,56.56307
2554.00000,99.21272
2556.00000,43.76313
2558.00000,68.26970
2560.00000,102.97501
2562.00000,72.49564
2564.00000,70.97021
2566.00000,128.59175
2568.00000,184.69856
2570.00000,124.05730
2572.00000,41.07330
2574.00000,224.66774
2576.00000,202.00058
2578.00000,81.95921
2580.00000,128.61232
2582.00000,187.45187
2584.00000,105.36941
2586.00000,54.55689
2588.00000,88.80482
2590.00000,101.82339
2592.00000,128.60617
2594.00000,141.48546
2596.00000,118.81120
2598.00000,84.05107
2600.00000,87.16560
2602.00000,134.41786
2604.00000,106.24064
2606.00000,58.04331
2608.00000,132.34045
2610.00000,153.01093
2612.00000,138.85260
2614.00000,169.97813
2616.00000,210.35028
2618.00000,139.84901
2620.00000,104.66816
2622.00000,117.46296
2624.00000,112.95554
2626.00000,96.49765
2628.00000,130.41898
2630.00000,154.99707
2632.00000,138.46582
2634.00000,111.48500
2636.00000,89.84542
2638.00000,86.23489
2640.00000,97.52398
2642.00000,127.61228
2644.00000,162.66495
2646.00000,110.68631
2648.00000,171.25371
2650.00000,214.02771
2652.00000,46.51689
2654.00000,152.42783
2656.00000,190.34395
2658.00000,98.80693
2660.00000,95.28786
2662.00000,152.69228
2664.00000,151.68489
2666.00000,175.72044
2668.00000,210.04668
2670.00000,157.87050
2672.00000,224.66064
2674.00000,214.46149
2676.00000,100.50846
2678.00000,77.44155
2680.00000,174.44838
2682.00000,164.57259
2684.00000,103.93514
2686.00000,114.57513
2688.00000,137.12558
2690.00000,116.93109
2692.00000,117.36305
2694.00000,133.49387
2696.00000,118.73131
2698.00000,126.30190
2700.00000,79.83188
2702.00000,120.05508
2704.00000,199.86772
2706.00000,39.13909
2708.00000,155.32893
2710.00000,194.10353
2712.00000,78.19910
2714.00000,171.31355
2716.00000,95.90731
2718.00000,84.25681
2720.00000,144.18600
2722.00000,115.04348
2724.00000,115.05365
2726.00000,123.06457
2728.00000,93.98170
2730.00000,90.54054
2732.00000,174.22693
2734.00000,156.30075
2736.00000,169.09962
2738.00000,217.69888
2740.00000,191.16661
2742.00000,183.03040
2744.00000,210.55948
2746.00000,217.93466
2748.00000,176.39842
2750.00000,129.84309
2752.00000,112.42132
2754.00000,128.12234
2756.00000,191.89761
2758.00000,251.46165
2760.00000,149.82288
2762.00000,124.97395
2764.00000,145.79370
2766.00000,98.31272
2768.00000,120.91732
2770.00000,150.72800
2772.00000,121.72834
2774.00000,75.56386
2776.00000,85.57294
2778.00000,89.91604
2780.00000,82.55843
2782.00000,62.49088
2784.00000,73.35925
2786.00000,174.26443
2788.00000,99.75933
2790.00000,54.52634
2792.00000,148.07088
2794.00000,110.77267
2796.00000,81.41708
2798.00000,118.73076
2800.00000,175.84758
2802.00000,200.61032
2804.00000,201.94734
2806.00000,200.44643
2808.00000,226.82637
2810.00000,253.27223
2812.00000,219.55713
2814.00000,235.25507
2816.00000,275.96216
2818.00000,310.52380
2820.00000,320.78311
2822.00000,217.63821
2824.00000,285.08957
2826.00000,358.35263
2828.00000,244.68190
2830.00000,265.51331
2832.00000,209.89069
2834.00000,152.96675
2836.00000,183.97913
2838.00000,177.83202
2840.00000,142.67647
2842.00000,161.36194
2844.00000,178.23535
2846.00000,119.51501
2848.00000,107.30145
2850.00000,160.81461
2852.00000,156.05591
2854.00000,115.79288
2856.00000,201.72795
2858.00000,187.73660
2860.00000,166.20630
2862.00000,169.59343
2864.00000,136.49472
2866.00000,226.29095
2868.00000,261.35495
2870.00000,171.60081
2872.00000,105.18472
2874.00000,186.10561
2876.00000,197.66393
2878.00000,201.39888
2880.00000,220.99861
2882.00000,171.92700
2884.00000,228.74519
2886.00000,212.88774
2888.00000,134.81628
2890.00000,152.80579
2892.00000,194.68008
2894.00000,139.29863
2896.00000,163.48570
2898.00000,247.68883
2900.00000,130.68672
2902.00000,121.15968
2904.00000,187.82524
2906.00000,195.27135
2908.00000,155.89644
2910.00000,173.82492
2912.00000,157.16466
2914.00000,158.00635
2916.00000,175.69844
2918.00000,91.47113
2920.00000,187.78249
2922.00000,198.41644
2924.00000,137.01463
2926.00000,266.45538
2928.00000,184.41714
2930.00000,149.40155
2932.00000,190.52371
2934.00000,173.00079
2936.00000,215.78134
2938.00000,180.21492
2940.00000,165.04488
2942.00000,215.68292
2944.00000,211.31592
2946.00000,243.68735
2948.00000,263.68451
2950.00000,247.95258
2952.00000,230.72038
2954.00000,199.69118
2956.00000,142.51199
2958.00000,121.89055
2960.00000,184.03218
2962.00000,231.92107
2964.00000,84.43357
2966.00000,188.50912
2968.00000,367.31729
2970.00000,141.98404
2972.00000,112.84902
2974.00000,221.56433
2976.00000,235.38297
2978.00000,174.45050
2980.00000,233.37605
2982.00000,229.05608
2984.00000,149.18781
2986.00000,150.93652
2988.00000,260.99750
2990.00000,187.25208
2992.00000,114.27356
2994.00000,185.03528
2996.00000,258.98145
2998.00000,156.44794
3000.00000,138.84846
3002.00000,119.93076
3004.00000,85.27562
3006.00000,231.82501
3008.00000,237.50816
3010.00000,184.60661
3012.00000,184.21741
3014.00000,171.19408
3016.00000,105.31416
3018.00000,136.04707
3020.00000,178.68941
3022.00000,109.01658
3024.00000,44.04485
3026.00000,137.54573
3028.00000,200.49013
3030.00000,128.51535
3032.00000,72.18984
3034.00000,122.81100
3036.00000,123.23146
3038.00000,126.67775
3040.00000,207.41527
3042.00000,186.01027
3044.00000,131.34995
3046.00000,272.18475
3048.00000,365.58438
3050.00000,124.98969
3052.00000,419.71268
3054.00000,494.84912
3056.00000,257.97849
3058.00000,305.07059
3060.00000,387.57886
3062.00000,403.75717
3064.00000,341.70395
3066.00000,339.03973
3068.00000,514.92883
3070.00000,489.17877
3072.00000,377.39722
3074.00000,384.98502
3076.00000,421.08820
3078.00000,256.90845
3080.00000,226.79427
3082.00000,262.10074
3084.00000,224.00677
3086.00000,320.46561
3088.00000,249.96764
3090.00000,136.83606
3092.00000,186.62947
3094.00000,284.25397
3096.00000,177.76691
3098.00000,199.64626
3100.00000,254.28331
3102.00000,152.05164
3104.00000,258.24109
3106.00000,317.48523
3108.00000,224.62015
3110.00000,150.63148
3112.00000,219.87790
3114.00000,191.24989
3116.00000,165.25168
3118.00000,170.81534
3120.00000,161.04764
3122.00000,275.83725
3124.00000,284.51843
3126.00000,234.55809
3128.00000,227.36830
3130.00000,172.35484
3132.00000,234.26306
3134.00000,229.71548
3136.00000,152.20868
3138.00000,184.72940
3140.00000,149.68286
3142.00000,147.35623
3144.00000,178.84477
3146.00000,176.76393
3148.00000,187.50752
3150.00000,172.56500
3152.00000,246.19696
3154.00000,308.97589
3156.00000,162.68855
3158.00000,180.74199
3160.00000,254.05212
3162.00000,223.63803
3164.00000,196.48395
3166.00000,349.81332
3168.00000,322.36118
3170.00000,234.70169
3172.00000,258.70370
3174.00000,215.57278
3176.00000,192.57753
3178.00000,225.42825
3180.00000,239.67255
3182.00000,167.52464
3184.00000,111.27010
3186.00000,283.53662
3188.00000,270.52109
3190.00000,42.79440
3192.00000,320.84790
3194.00000,285.48480
3196.00000,206.40933
3198.00000,304.41977
3200.00000,221.92009
