300.00000,15.57976
302.00000,23.77052
304.00000,22.30364
306.00000,19.62556
308.00000,21.49627
310.00000,23.90540
312.00000,23.92986
314.00000,27.98917
316.00000,24.99529
318.00000,15.87636
320.00000,10.59935
322.00000,11.57023
324.00000,38.37933
326.00000,69.60538
328.00000,88.42619
330.00000,111.34651
332.00000,139.83534
334.00000,142.90103
336.00000,129.73064
338.00000,141.42929
340.00000,188.23700
342.00000,234.02254
344.00000,266.90808
346.00000,283.72498
348.00000,271.36731
350.00000,228.35123
352.00000,178.02472
354.00000,128.65073
356.00000,89.06969
358.00000,84.16130
360.00000,80.86316
362.00000,72.47688
364.00000,76.73667
366.00000,92.53082
368.00000,80.18629
370.00000,68.25589
372.00000,71.89407
374.00000,82.12881
376.00000,93.81167
378.00000,78.53712
380.00000,68.36874
382.00000,79.04924
384.00000,73.82226
386.00000,38.01778
388.00000,14.22481
390.00000,18.94662
392.00000,29.37887
394.00000,26.70344
396.00000,29.89790
398.00000,36.47879
400.00000,36.52907
402.00000,32.43866
404.00000,32.86127
406.00000,37.89627
408.00000,40.03799
410.00000,39.15600
412.00000,42.60884
414.00000,32.90547
416.00000,34.12502
418.00000,50.74038
420.00000,54.16566
422.00000,45.95361
424.00000,34.99900
426.00000,44.22544
428.00000,81.13941
430.00000,115.42513
432.00000,121.71313
434.00000,124.32124
436.00000,136.70215
438.00000,137.27843
440.00000,119.42411
442.00000,136.87271
444.00000,150.49142
446.00000,123.32047
448.00000,113.59208
450.00000,105.04624
452.00000,104.94610
454.00000,103.49999
456.00000,85.78630
458.00000,90.79900
460.00000,94.81398
462.00000,87.08405
464.00000,81.31071
466.00000,88.92625
468.00000,110.11501
470.00000,116.98295
472.00000,103.46939
474.00000,89.72606
476.00000,82.69781
478.00000,93.93604
480.00000,106.38817
482.00000,105.61155
484.00000,103.84216
486.00000,96.03165
488.00000,78.72326
490.00000,60.20528
492.00000,49.31907
494.00000,40.20486
496.00000,36.51585
498.00000,48.17901
500.00000,68.97195
502.00000,73.51787
504.00000,57.53889
506.00000,52.74593
508.00000,63.79004
510.00000,65.29028
512.00000,56.44853
514.00000,65.61413
516.00000,50.83059
518.00000,14.03350
520.00000,32.65298
522.00000,52.75134
524.00000,80.97840
526.00000,101.78394
528.00000,97.41762
530.00000,122.93382
532.00000,125.97251
534.00000,117.45648
536.00000,113.32684
538.00000,88.53689
540.00000,90.71520
542.00000,87.97588
544.00000,66.81599
546.00000,54.06375
548.00000,54.90429
550.00000,68.38519
552.00000,73.24543
554.00000,68.70683
556.00000,70.82676
558.00000,44.15073
560.00000,35.60809
562.00000,50.71554
564.00000,52.12602
566.00000,48.72426
568.00000,47.10552
570.00000,54.89148
572.00000,57.68195
574.00000,34.64793
576.00000,23.99337
578.00000,51.78069
580.00000,73.67239
582.00000,59.71775
584.00000,70.38334
586.00000,65.38302
588.00000,49.87640
590.00000,68.93447
592.00000,125.31821
594.00000,137.79440
596.00000,114.28932
598.00000,96.91656
600.00000,106.48463
602.00000,132.67647
604.00000,153.29912
606.00000,138.11263
608.00000,114.91300
610.00000,129.30977
612.00000,110.40214
614.00000,93.79305
616.00000,99.34519
618.00000,100.18202
620.00000,89.62038
622.00000,101.32360
624.00000,103.36360
626.00000,80.62267
628.00000,68.00398
630.00000,61.63040
632.00000,66.40186
634.00000,75.72822
636.00000,87.81286
638.00000,119.11578
640.00000,147.76106
642.00000,182.28830
644.00000,206.77086
646.00000,185.21223
648.00000,153.05421
650.00000,130.45441
652.00000,118.50723
654.00000,115.05014
656.00000,117.30086
658.00000,106.37954
660.00000,140.00305
662.00000,174.02373
664.00000,150.45038
666.00000,270.88077
668.00000,376.02151
670.00000,458.07108
672.00000,639.66626
674.00000,925.43463
676.00000,1386.16772
678.00000,2113.87720
680.00000,3092.10425
682.00000,4083.13770
684.00000,4645.32275
686.00000,4508.84277
688.00000,3778.30615
690.00000,2824.88525
692.00000,2010.62683
694.00000,1445.67444
696.00000,1129.74402
698.00000,983.82703
700.00000,908.52783
702.00000,875.88562
704.00000,859.20038
706.00000,818.53241
708.00000,739.86499
710.00000,654.87872
712.00000,582.74774
714.00000,531.86646
716.00000,499.87643
718.00000,486.61633
720.00000,509.15051
722.00000,567.08264
724.00000,620.58722
726.00000,681.80566
728.00000,845.18921
730.00000,1117.53113
732.00000,1457.96265
734.00000,1955.97217
736.00000,2659.37720
738.00000,3252.98486
740.00000,3508.36914
742.00000,3254.48535
744.00000,2594.23315
746.00000,1929.53064
748.00000,1429.33142
750.00000,1123.37903
752.00000,945.05847
754.00000,819.14423
756.00000,751.26868
758.00000,705.17780
760.00000,711.99719
762.00000,809.73169
764.00000,967.80841
766.00000,1160.42566
768.00000,1444.93811
770.00000,1879.76160
772.00000,2412.56885
774.00000,2841.25928
776.00000,2980.01440
778.00000,2727.55615
780.00000,2172.23340
782.00000,1580.60901
784.00000,1157.83252
786.00000,894.03876
788.00000,715.43213
790.00000,590.06439
792.00000,523.75104
794.00000,514.39270
796.00000,479.20407
798.00000,415.78964
800.00000,409.95834
802.00000,351.86801
804.00000,321.02881
806.00000,320.99698
808.00000,313.68115
810.00000,411.84766
812.00000,489.36609
814.00000,571.01678
816.00000,661.79089
818.00000,638.22382
820.00000,563.04791
822.00000,454.27560
824.00000,332.61148
826.00000,257.98679
828.00000,264.64993
830.00000,234.47046
832.00000,180.30835
834.00000,161.07802
836.00000,158.03735
838.00000,144.01614
840.00000,151.70967
842.00000,150.12076
844.00000,98.01789
846.00000,69.66274
848.00000,122.12447
850.00000,141.51093
852.00000,86.69676
854.00000,66.65809
856.00000,56.64924
858.00000,62.64644
860.00000,57.00112
862.00000,36.54868
864.00000,81.66028
866.00000,126.22710
868.00000,117.50818
870.00000,75.96432
872.00000,71.16415
874.00000,134.00876
876.00000,108.02751
878.00000,69.60123
880.00000,125.34408
882.00000,99.51085
884.00000,106.99001
886.00000,135.09567
888.00000,114.09012
890.00000,73.57080
892.00000,93.69975
894.00000,97.47829
896.00000,116.61608
898.00000,164.50569
900.00000,95.84205
902.00000,83.56377
904.00000,108.86552
906.00000,115.88972
908.00000,136.01115
910.00000,126.32127
912.00000,123.03974
914.00000,148.08942
916.00000,172.92661
918.00000,162.24332
920.00000,137.07631
922.00000,134.92752
924.00000,147.93962
926.00000,136.28795
928.00000,106.76405
930.00000,73.77479
932.00000,90.56361
934.00000,147.39282
936.00000,141.19080
938.00000,140.18797
940.00000,178.54266
942.00000,180.02341
944.00000,119.85677
946.00000,195.75659
948.00000,262.59531
950.00000,296.21637
952.00000,367.63104
954.00000,427.95496
956.00000,473.89120
958.00000,456.89984
960.00000,417.79620
962.00000,397.69888
964.00000,244.35602
966.00000,184.36244
968.00000,219.41846
970.00000,208.71509
972.00000,190.18877
974.00000,210.66319
976.00000,257.43182
978.00000,307.52759
980.00000,327.45328
982.00000,259.83356
984.00000,223.52213
986.00000,169.76872
988.00000,95.99254
990.00000,164.51559
992.00000,160.27759
994.00000,170.41660
996.00000,244.51215
998.00000,284.07431
1000.00000,323.35193
1002.00000,320.43756
1004.00000,288.47913
1006.00000,241.14322
1008.00000,159.06877
1010.00000,146.82463
1012.00000,128.11923
1014.00000,82.78521
1016.00000,86.49038
1018.00000,111.17872
1020.00000,138.82834
1022.00000,151.64983
1024.00000,153.98334
1026.00000,170.58078
1028.00000,181.23396
1030.00000,198.29550
1032.00000,229.72746
1034.00000,239.38539
1036.00000,183.25833
1038.00000,163.69164
1040.00000,118.08527
1042.00000,70.54279
1044.00000,180.19218
1046.00000,181.50549
1048.00000,182.05785
1050.00000,169.83627
1052.00000,66.79585
1054.00000,142.35562
1056.00000,239.49834
1058.00000,240.79251
1060.00000,191.74974
1062.00000,176.54912
1064.00000,195.15747
1066.00000,237.58981
1068.00000,276.08804
1070.00000,297.32968
1072.00000,337.20300
1074.00000,380.25357
1076.00000,434.52960
1078.00000,542.19391
1080.00000,699.65112
1082.00000,765.24921
1084.00000,739.90875
1086.00000,665.11310
1088.00000,544.84662
1090.00000,392.12503
1092.00000,329.23032
1094.00000,301.04108
1096.00000,269.13339
1098.00000,282.68219
1100.00000,193.99371
1102.00000,126.88160
1104.00000,140.83098
1106.00000,159.43158
1108.00000,166.05824
1110.00000,184.15643
1112.00000,180.86169
1114.00000,149.82593
1116.00000,138.58513
1118.00000,130.77490
1120.00000,123.85006
1122.00000,129.41895
1124.00000,154.03728
1126.00000,183.40303
1128.00000,185.82227
1130.00000,185.22806
1132.00000,220.41498
1134.00000,268.55341
1136.00000,236.46649
1138.00000,194.91203
1140.00000,259.51941
1142.00000,353.70416
1144.00000,255.84715
1146.00000,270.54788
1148.00000,315.45337
1150.00000,259.91446
1152.00000,209.30191
1154.00000,163.97520
1156.00000,195.15234
1158.00000,224.74519
1160.00000,169.83046
1162.00000,151.80940
1164.00000,174.39366
1166.00000,184.08292
1168.00000,191.32787
1170.00000,253.10388
1172.00000,320.46899
1174.00000,313.17120
1176.00000,351.83466
1178.00000,502.11487
1180.00000,575.40948
1182.00000,698.44202
1184.00000,800.23230
1186.00000,845.71222
1188.00000,935.53925
1190.00000,1017.62903
1192.00000,1075.75183
1194.00000,1148.40698
1196.00000,1261.44275
1198.00000,1405.56262
1200.00000,1641.51709
1202.00000,1889.05762
1204.00000,2110.95386
1206.00000,2387.03052
1208.00000,2716.19360
1210.00000,2904.11890
1212.00000,2992.77979
1214.00000,2958.88062
1216.00000,2548.78931
1218.00000,2164.83618
1220.00000,1750.50171
1222.00000,1303.57654
1224.00000,1046.48853
1226.00000,869.70325
1228.00000,753.42596
1230.00000,652.43494
1232.00000,546.46112
1234.00000,496.29367
1236.00000,457.33377
1238.00000,438.73306
1240.00000,416.94473
1242.00000,345.11902
1244.00000,274.05267
1246.00000,206.39301
1248.00000,171.25906
1250.00000,192.73494
1252.00000,238.23166
1254.00000,274.89932
1256.00000,296.84106
1258.00000,320.34793
1260.00000,364.57495
1262.00000,440.31940
1264.00000,580.11963
1266.00000,725.67029
1268.00000,831.35364
1270.00000,975.46362
1272.00000,1246.19495
1274.00000,1595.81848
1276.00000,2047.62720
1278.00000,2612.20776
1280.00000,3054.51685
1282.00000,3372.73486
1284.00000,3517.59058
1286.00000,3545.95776
1288.00000,3668.56714
1290.00000,3736.52368
1292.00000,3512.53638
1294.00000,3081.14697
1296.00000,2642.87817
1298.00000,2095.90698
1300.00000,1733.24146
1302.00000,1487.43164
1304.00000,1209.87390
1306.00000,1012.97473
1308.00000,830.25702
1310.00000,699.22809
1312.00000,673.26563
1314.00000,697.21606
1316.00000,651.14459
1318.00000,660.28113
1320.00000,612.98242
1322.00000,590.05890
1324.00000,883.99030
1326.00000,1029.24634
1328.00000,1326.69592
1330.00000,1821.42883
1332.00000,2294.68970
1334.00000,2998.66260
1336.00000,3558.44775
1338.00000,3825.66992
1340.00000,3784.01343
1342.00000,3385.39087
1344.00000,2912.20630
1346.00000,2340.78638
1348.00000,1870.04431
1350.00000,1639.34387
1352.00000,1255.32788
1354.00000,1098.39551
1356.00000,1091.27173
1358.00000,1020.89935
1360.00000,978.30054
1362.00000,924.42657
1364.00000,891.88660
1366.00000,828.11713
1368.00000,685.16345
1370.00000,581.27222
1372.00000,485.11136
1374.00000,406.24753
1376.00000,361.32559
1378.00000,330.92822
1380.00000,322.19205
1382.00000,230.87646
1384.00000,195.77036
1386.00000,328.89850
1388.00000,356.41806
1390.00000,359.49176
1392.00000,377.11877
1394.00000,388.93600
1396.00000,379.88449
1398.00000,300.19470
1400.00000,255.74236
1402.00000,245.69164
1404.00000,217.76711
1406.00000,229.63654
1408.00000,195.09583
1410.00000,171.49039
1412.00000,156.69373
1414.00000,80.00496
1416.00000,127.87474
1418.00000,215.78433
1420.00000,204.95711
1422.00000,137.60941
1424.00000,189.28101
1426.00000,238.37186
1428.00000,244.19447
1430.00000,227.86162
1432.00000,208.25330
1434.00000,249.23857
1436.00000,313.54617
1438.00000,336.62674
1440.00000,330.70886
1442.00000,384.61807
1444.00000,466.32098
1446.00000,504.52051
1448.00000,452.19278
1450.00000,344.95184
1452.00000,308.40433
1454.00000,309.85593
1456.00000,272.10876
1458.00000,215.25122
1460.00000,239.33667
1462.00000,258.61960
1464.00000,218.03604
1466.00000,168.54465
1468.00000,174.23007
1470.00000,177.66138
1472.00000,194.17033
1474.00000,171.46358
1476.00000,142.72572
1478.00000,244.05388
1480.00000,178.78304
1482.00000,129.33435
1484.00000,181.50810
1486.00000,140.81253
1488.00000,116.11327
1490.00000,198.99255
1492.00000,245.88976
1494.00000,219.05623
1496.00000,355.20651
1498.00000,495.37561
1500.00000,539.86469
1502.00000,635.33746
1504.00000,835.44128
1506.00000,765.73132
1508.00000,817.80640
1510.00000,877.11591
1512.00000,860.30981
1514.00000,1218.63940
1516.00000,1449.83594
1518.00000,1820.15955
1520.00000,2376.29150
1522.00000,2859.95947
1524.00000,3715.31665
1526.00000,4718.33496
1528.00000,5792.45508
1530.00000,7125.95313
1532.00000,8782.14746
1534.00000,10447.21387
1536.00000,11635.40039
1538.00000,11683.63770
1540.00000,10356.84082
1542.00000,8536.41309
1544.00000,6897.05566
1546.00000,5594.61133
1548.00000,4638.10840
1550.00000,4058.24194
1552.00000,3479.82275
1554.00000,3168.56665
1556.00000,2996.36987
1558.00000,2592.87183
1560.00000,2369.37769
1562.00000,2126.84937
1564.00000,1933.75745
1566.00000,1859.50024
1568.00000,1667.76135
1570.00000,1490.29712
1572.00000,1357.67346
1574.00000,1219.54749
1576.00000,1071.96570
1578.00000,977.98163
1580.00000,885.56305
1582.00000,799.85474
1584.00000,715.44452
1586.00000,597.05005
1588.00000,560.89819
1590.00000,497.86615
1592.00000,443.49136
1594.00000,475.43289
1596.00000,388.03302
1598.00000,325.01141
1600.00000,267.46283
1602.00000,212.56645
1604.00000,288.42068
1606.00000,326.72583
1608.00000,291.89026
1610.00000,260.41504
1612.00000,269.94778
1614.00000,251.38899
1616.00000,217.05359
1618.00000,195.68198
1620.00000,224.18385
1622.00000,277.57520
1624.00000,179.35614
1626.00000,158.07100
1628.00000,214.83653
1630.00000,170.85352
1632.00000,142.84837
1634.00000,154.19176
1636.00000,177.62584
1638.00000,152.82285
1640.00000,101.58126
1642.00000,241.26595
1644.00000,207.24266
1646.00000,72.49724
1648.00000,108.32251
1650.00000,52.61760
1652.00000,179.30968
1654.00000,200.42055
1656.00000,61.67991
1658.00000,171.16724
1660.00000,171.38351
1662.00000,158.48718
1664.00000,173.14616
1666.00000,122.59593
1668.00000,92.93771
1670.00000,147.96741
1672.00000,157.59940
1674.00000,135.01810
1676.00000,215.87843
1678.00000,175.12491
1680.00000,160.06967
1682.00000,200.77803
1684.00000,185.69788
1686.00000,150.53238
1688.00000,130.12149
1690.00000,142.80000
1692.00000,153.58943
1694.00000,111.50187
1696.00000,63.03937
1698.00000,83.04837
1700.00000,112.50056
1702.00000,67.93480
1704.00000,27.43653
1706.00000,110.69257
1708.00000,123.05692
1710.00000,41.08188
1712.00000,79.59014
1714.00000,116.75382
1716.00000,128.65263
1718.00000,126.15406
1720.00000,131.62692
1722.00000,171.72807
1724.00000,153.57329
1726.00000,125.98988
1728.00000,133.89122
1730.00000,142.78683
1732.00000,154.12878
1734.00000,90.77945
1736.00000,82.50577
1738.00000,178.18765
1740.00000,138.24144
1742.00000,110.50555
1744.00000,144.89510
1746.00000,161.93700
1748.00000,118.46542
1750.00000,105.96886
1752.00000,105.77969
1754.00000,123.91631
1756.00000,132.88884
1758.00000,65.06954
1760.00000,109.85339
1762.00000,165.35931
1764.00000,126.36843
1766.00000,84.24676
1768.00000,133.31166
1770.00000,189.01172
1772.00000,181.38211
1774.00000,127.31631
1776.00000,90.89178
1778.00000,115.66007
1780.00000,162.33958
1782.00000,176.22067
1784.00000,165.13663
1786.00000,187.30379
1788.00000,148.85754
1790.00000,151.65079
1792.00000,211.94968
1794.00000,137.42732
1796.00000,200.94606
1798.00000,244.27734
1800.00000,134.08513
1802.00000,54.89795
1804.00000,169.97336
1806.00000,159.92647
1808.00000,98.17505
1810.00000,134.74368
1812.00000,99.26614
1814.00000,94.29538
1816.00000,79.05091
1818.00000,93.52258
1820.00000,191.97462
1822.00000,178.34360
1824.00000,151.45920
1826.00000,137.85606
1828.00000,146.49048
1830.00000,239.22813
1832.00000,250.97530
1834.00000,128.12679
1836.00000,90.92719
1838.00000,238.46568
1840.00000,188.19417
1842.00000,156.35030
1844.00000,136.36743
1846.00000,132.28723
1848.00000,281.00568
1850.00000,136.63550
1852.00000,134.60625
1854.00000,218.21773
1856.00000,51.05075
1858.00000,173.05693
1860.00000,134.63576
1862.00000,66.18192
1864.00000,152.07047
1866.00000,97.51555
1868.00000,111.35549
1870.00000,100.99050
1872.00000,93.01814
1874.00000,162.84082
1876.00000,108.88279
1878.00000,204.55165
1880.00000,215.45267
1882.00000,81.43359
1884.00000,171.07068
1886.00000,106.59592
1888.00000,137.75085
1890.00000,183.84552
1892.00000,36.17410
1894.00000,125.38736
1896.00000,189.98070
1898.00000,175.52141
1900.00000,156.57552
1902.00000,111.18736
1904.00000,140.40808
1906.00000,195.66362
1908.00000,197.57420
1910.00000,153.69196
1912.00000,136.63087
1914.00000,116.73296
1916.00000,234.28374
1918.00000,340.49710
1920.00000,161.80763
1922.00000,238.63329
1924.00000,242.51910
1926.00000,157.11794
1928.00000,208.68845
1930.00000,153.38264
1932.00000,254.40839
1934.00000,305.97852
1936.00000,211.93951
1938.00000,217.01929
1940.00000,121.40895
1942.00000,166.83727
1944.00000,287.52457
1946.00000,262.19809
1948.00000,246.13841
1950.00000,179.57736
1952.00000,188.09573
1954.00000,273.06720
1956.00000,272.56329
1958.00000,316.80432
1960.00000,233.03668
1962.00000,223.04340
1964.00000,384.25723
1966.00000,230.40018
1968.00000,173.41785
1970.00000,252.40837
1972.00000,252.95070
1974.00000,168.85869
1976.00000,219.96971
1978.00000,263.47488
1980.00000,266.63754
1982.00000,274.70898
1984.00000,189.33740
1986.00000,92.83556
1988.00000,91.78750
1990.00000,152.08282
1992.00000,153.48833
1994.00000,121.47469
1996.00000,144.15100
1998.00000,153.40810
2000.00000,18.90744
2002.00000,17.09621
2004.00000,23.00898
2006.00000,40.60621
2008.00000,39.92221
2010.00000,34.63431
2012.00000,55.31758
2014.00000,100.26402
2016.00000,131.09776
2018.00000,125.97442
2020.00000,145.09985
2022.00000,176.46136
2024.00000,169.98882
2026.00000,144.66316
2028.00000,151.34924
2030.00000,123.35641
2032.00000,75.62666
2034.00000,101.50075
2036.00000,86.65681
2038.00000,55.49277
2040.00000,64.35378
2042.00000,96.37409
2044.00000,81.44791
2046.00000,52.59906
2048.00000,57.30590
2050.00000,90.56848
2052.00000,98.96849
2054.00000,67.05019
2056.00000,83.07616
2058.00000,127.27515
2060.00000,109.86335
2062.00000,89.55357
2064.00000,110.76985
2066.00000,123.41548
2068.00000,87.46058
2070.00000,63.82808
2072.00000,95.18318
2074.00000,88.40499
2076.00000,45.06004
2078.00000,76.11684
2080.00000,131.84525
2082.00000,103.83463
2084.00000,51.84352
2086.00000,57.04287
2088.00000,33.97940
2090.00000,30.81790
2092.00000,52.27051
2094.00000,65.28575
2096.00000,64.05391
2098.00000,75.88280
2100.00000,66.30203
2102.00000,59.49583
2104.00000,100.05466
2106.00000,135.59834
2108.00000,162.15283
2110.00000,159.56430
2112.00000,124.90302
2114.00000,105.27453
2116.00000,124.61157
2118.00000,127.44670
2120.00000,103.68311
2122.00000,98.12846
2124.00000,96.06078
2126.00000,76.16187
2128.00000,87.32589
2130.00000,114.23031
2132.00000,51.06220
2134.00000,81.19040
2136.00000,109.62494
2138.00000,82.79182
2140.00000,126.04581
2142.00000,161.16803
2144.00000,127.59841
2146.00000,100.41507
2148.00000,144.70877
2150.00000,160.86823
2152.00000,157.27394
2154.00000,177.85452
2156.00000,191.86920
2158.00000,140.08305
2160.00000,139.86559
2162.00000,161.01080
2164.00000,153.51080
2166.00000,145.04341
2168.00000,175.55109
2170.00000,154.58600
2172.00000,120.76329
2174.00000,137.24918
2176.00000,146.85828
2178.00000,147.97403
2180.00000,142.21463
2182.00000,133.04668
2184.00000,137.37646
2186.00000,171.14485
2188.00000,178.21028
2190.00000,164.03055
2192.00000,175.76788
2194.00000,197.03183
2196.00000,159.92113
2198.00000,175.15277
2200.00000,238.06633
2202.00000,196.50299
2204.00000,203.69922
2206.00000,253.54202
2208.00000,274.36487
2210.00000,274.43100
2212.00000,332.54099
2214.00000,348.98770
2216.00000,343.62589
2218.00000,360.90488
2220.00000,349.93869
2222.00000,335.13486
2224.00000,314.07358
2226.00000,272.23279
2228.00000,233.48871
2230.00000,253.91261
2232.00000,235.00768
2234.00000,232.28276
2236.00000,251.72334
2238.00000,129.44666
2240.00000,159.59639
2242.00000,192.18730
2244.00000,106.48618
2246.00000,93.39811
2248.00000,165.12402
2250.00000,155.78482
2252.00000,112.12783
2254.00000,149.85930
2256.00000,145.67194
2258.00000,125.18414
2260.00000,142.91946
2262.00000,194.18150
2264.00000,220.75502
2266.00000,207.39996
2268.00000,257.13675
2270.00000,308.24335
2272.00000,254.30370
2274.00000,260.47876
2276.00000,286.77032
2278.00000,247.37813
2280.00000,189.76114
2282.00000,226.19513
2284.00000,174.94415
2286.00000,136.34616
2288.00000,190.00560
2290.00000,210.91164
2292.00000,131.08931
2294.00000,144.03717
2296.00000,189.01326
2298.00000,135.07663
2300.00000,145.39896
2302.00000,235.63602
2304.00000,275.34335
2306.00000,240.36099
2308.00000,231.63985
2310.00000,180.53166
2312.00000,166.83356
2314.00000,182.17410
2316.00000,145.97603
2318.00000,113.91239
2320.00000,143.06714
2322.00000,133.90915
2324.00000,77.47399
2326.00000,116.91959
2328.00000,101.45091
2330.00000,87.34840
2332.00000,102.38243
2334.00000,85.47009
2336.00000,95.41309
2338.00000,96.58795
2340.00000,106.62241
2342.00000,129.84248
2344.00000,104.14536
2346.00000,143.86139
2348.00000,181.83199
2350.00000,151.41953
2352.00000,122.92360
2354.00000,147.00021
2356.00000,142.36406
2358.00000,108.55988
2360.00000,118.46006
2362.00000,157.28920
2364.00000,119.55421
2366.00000,110.58276
2368.00000,155.66890
2370.00000,111.01390
2372.00000,126.70820
2374.00000,171.58153
2376.00000,164.64085
2378.00000,127.17879
2380.00000,147.11378
2382.00000,145.57494
2384.00000,122.29971
2386.00000,113.34173
2388.00000,102.82070
2390.00000,146.43948
2392.00000,166.95737
2394.00000,162.62257
2396.00000,191.76965
2398.00000,139.74664
2400.00000,165.26732
2402.00000,217.80556
2404.00000,173.93704
2406.00000,164.68942
2408.00000,201.81645
2410.00000,208.53348
2412.00000,190.89250
2414.00000,217.51266
2416.00000,196.14969
2418.00000,218.15097
2420.00000,257.03946
2422.00000,216.83707
2424.00000,190.27527
2426.00000,190.74858
2428.00000,172.05984
2430.00000,146.53690
2432.00000,170.68796
2434.00000,137.41870
2436.00000,113.00002
2438.00000,143.42926
2440.00000,157.38911
2442.00000,118.98927
2444.00000,168.96870
2446.00000,206.56424
2448.00000,117.91745
2450.00000,84.51338
2452.00000,187.77251
2454.00000,226.09615
2456.00000,158.63931
2458.00000,151.86728
2460.00000,103.81969
2462.00000,121.58154
2464.00000,172.62631
2466.00000,150.13495
2468.00000,141.99002
2470.00000,165.88446
2472.00000,153.59988
2474.00000,123.46728
2476.00000,170.46242
2478.00000,177.99374
2480.00000,137.99365
2482.00000,145.26007
2484.00000,214.35292
2486.00000,187.71883
2488.00000,179.24678
2490.00000,249.85085
2492.00000,263.73871
2494.00000,111.91695
2496.00000,162.08990
2498.00000,218.10144
2500.00000,130.45964
2502.00000,93.82357
2504.00000,143.46977
2506.00000,115.81770
2508.00000,57.57654
2510.00000,96.90368
2512.00000,142.92722
2514.00000,95.91177
2516.00000,64.77966
2518.00000,92.49353
2520.00000,78.23773
2522.00000,95.14491
2524.00000,107.92957
2526.00000,87.78162
2528.00000,67.23500
2530.00000,75.65292
2532.00000,81.13671
2534.00000,86.03176
2536.00000,77.16022
2538.00000,35.56016
2540.00000,87.42821
2542.00000,115.90213
2544.00000,57.75260
2546.00000,31.08131
2548.00000,111.45466
2550.00000,135.46732
2552.00000,108.18417
2554.00000,127.69991
2556.00000,156.05957
2558.00000,142.21402
2560.00000,120.05073
2562.00000,140.67282
2564.00000,168.98994
2566.00000,86.98818
2568.00000,60.20181
2570.00000,90.56308
2572.00000,84.29420
2574.00000,129.66730
2576.00000,145.31451
2578.00000,128.16484
2580.00000,115.46523
2582.00000,102.08031
2584.00000,92.93394
2586.00000,89.89862
2588.00000,80.29298
2590.00000,75.28542
2592.00000,118.47365
2594.00000,96.27776
2596.00000,75.59048
2598.00000,119.74925
2600.00000,112.36102
2602.00000,96.87330
2604.00000,128.97665
2606.00000,139.09482
2608.00000,68.65706
2610.00000,94.77446
2612.00000,94.68003
2614.00000,89.50806
2616.00000,135.28436
2618.00000,90.91262
2620.00000,73.54392
2622.00000,90.62306
2624.00000,91.43718
2626.00000,81.57417
2628.00000,81.69335
2630.00000,89.24252
2632.00000,104.58826
2634.00000,106.03855
2636.00000,56.30960
2638.00000,94.31341
2640.00000,120.66275
2642.00000,60.00676
2644.00000,63.06792
2646.00000,110.56076
2648.00000,104.33047
2650.00000,68.99554
2652.00000,98.07954
2654.00000,129.54756
2656.00000,89.77931
2658.00000,87.33469
2660.00000,139.73633
2662.00000,71.32475
2664.00000,141.85201
2666.00000,159.60052
2668.00000,80.06388
2670.00000,141.61301
2672.00000,134.34021
2674.00000,105.95305
2676.00000,125.15640
2678.00000,148.74217
2680.00000,123.36072
2682.00000,136.41884
2684.00000,142.68292
2686.00000,108.95666
2688.00000,95.94395
2690.00000,49.30421
2692.00000,42.65122
2694.00000,70.45676
2696.00000,71.94882
2698.00000,109.06419
2700.00000,114.33885
2702.00000,90.82964
2704.00000,101.25370
2706.00000,145.14084
2708.00000,120.46778
2710.00000,79.80525
2712.00000,105.47626
2714.00000,152.32379
2716.00000,79.75209
2718.00000,56.71024
2720.00000,137.38521
2722.00000,172.34506
2724.00000,68.17432
2726.00000,77.92567
2728.00000,123.23125
2730.00000,94.86338
2732.00000,93.90444
2734.00000,140.42265
2736.00000,171.91624
2738.00000,168.78445
2740.00000,172.48703
2742.00000,201.36612
2744.00000,181.20303
2746.00000,153.98219
2748.00000,162.81953
2750.00000,152.79512
2752.00000,130.58365
2754.00000,115.65810
2756.00000,125.02816
2758.00000,143.76190
2760.00000,116.76855
2762.00000,95.08228
2764.00000,90.93565
2766.00000,94.39003
2768.00000,114.98645
2770.00000,83.02861
2772.00000,74.01405
2774.00000,115.87842
2776.00000,118.85355
2778.00000,75.80763
2780.00000,47.49477
2782.00000,73.55493
2784.00000,101.15626
2786.00000,37.74527
2788.00000,21.30723
2790.00000,67.74963
2792.00000,110.55001
2794.00000,112.51736
2796.00000,59.59859
2798.00000,137.76727
2800.00000,213.02017
2802.00000,96.87074
2804.00000,121.97152
2806.00000,171.04091
2808.00000,130.95467
2810.00000,113.40020
2812.00000,247.95158
2814.00000,249.40071
2816.00000,291.21384
2818.00000,354.64261
2820.00000,230.45433
2822.00000,258.89774
2824.00000,316.83734
2826.00000,306.47995
2828.00000,284.82947
2830.00000,273.16565
2832.00000,221.20200
2834.00000,203.29005
2836.00000,207.27847
2838.00000,136.12619
2840.00000,144.89186
2842.00000,222.21715
2844.00000,229.65686
2846.00000,133.03938
2848.00000,109.66629
2850.00000,129.13184
2852.00000,140.12299
2854.00000,170.85626
2856.00000,235.86798
2858.00000,163.17285
2860.00000,182.69225
2862.00000,252.83331
2864.00000,165.92923
2866.00000,221.04897
2868.00000,227.09419
2870.00000,200.34639
2872.00000,259.21646
2874.00000,282.38223
2876.00000,241.60095
2878.00000,243.46916
2880.00000,252.40179
2882.00000,178.70993
2884.00000,244.44690
2886.00000,223.12491
2888.00000,147.96838
2890.00000,192.63515
2892.00000,199.77872
2894.00000,180.27478
2896.00000,169.56653
2898.00000,211.82883
2900.00000,289.12030
2902.00000,199.00775
2904.00000,191.43571
2906.00000,258.39548
2908.00000,187.82370
2910.00000,163.88354
2912.00000,215.59309
2914.00000,239.35550
2916.00000,175.93030
2918.00000,116.72054
2920.00000,178.35266
2922.00000,190.40321
2924.00000,140.73663
2926.00000,183.80504
2928.00000,189.89502
2930.00000,193.63882
2932.00000,177.67291
2934.00000,123.42897
2936.00000,125.74400
2938.00000,155.45828
2940.00000,166.03474
2942.00000,178.46689
2944.00000,220.02766
2946.00000,188.84544
2948.00000,171.53522
2950.00000,203.27327
2952.00000,206.54234
2954.00000,155.55177
2956.00000,198.47295
2958.00000,229.29680
2960.00000,188.89868
2962.00000,229.04688
2964.00000,224.14749
2966.00000,169.05138
2968.00000,163.54932
2970.00000,211.46829
2972.00000,144.71733
2974.00000,153.13332
2976.00000,175.40479
2978.00000,116.45629
2980.00000,149.08119
2982.00000,184.36275
2984.00000,156.50513
2986.00000,125.35983
2988.00000,158.18243
2990.00000,158.56703
2992.00000,189.26199
2994.00000,183.66570
2996.00000,97.47292
2998.00000,122.78323
3000.00000,172.30099
3002.00000,141.80496
3004.00000,90.86247
3006.00000,141.10939
3008.00000,163.84775
3010.00000,121.74006
3012.00000,154.16805
3014.00000,257.06744
3016.00000,106.37717
3018.00000,98.54683
3020.00000,220.82582
3022.00000,239.60017
3024.00000,197.42030
3026.00000,128.41460
3028.00000,153.14430
3030.00000,196.63400
3032.00000,135.10135
3034.00000,199.38403
3036.00000,201.25987
3038.00000,158.92038
3040.00000,181.53394
3042.00000,145.20674
3044.00000,153.18791
3046.00000,307.32233
3048.00000,362.75391
3050.00000,133.08426
3052.00000,298.23608
3054.00000,335.56174
3056.00000,195.44272
3058.00000,256.58945
3060.00000,230.41084
3062.00000,243.50587
3064.00000,252.54134
3066.00000,265.24631
3068.00000,412.45285
3070.00000,339.55661
3072.00000,244.16010
3074.00000,338.18005
3076.00000,432.53818
3078.00000,234.46350
3080.00000,239.72202
3082.00000,318.85339
3084.00000,197.47054
3086.00000,201.51955
3088.00000,272.45242
3090.00000,238.57494
3092.00000,164.01385
3094.00000,232.19939
3096.00000,280.95059
3098.00000,179.23683
3100.00000,102.82858
3102.00000,195.29573
3104.00000,225.85321
3106.00000,182.51077
3108.00000,151.40189
3110.00000,219.17249
3112.00000,333.03583
3114.00000,214.68417
3116.00000,151.97569
3118.00000,189.91078
3120.00000,168.58026
3122.00000,277.18112
3124.00000,200.95676
3126.00000,77.70441
3128.00000,144.04152
3130.00000,229.65613
3132.00000,242.75966
3134.00000,159.67455
3136.00000,141.80067
3138.00000,269.23468
3140.00000,190.05617
3142.00000,129.73492
3144.00000,192.97275
3146.00000,257.96698
3148.00000,244.64561
3150.00000,115.19311
3152.00000,209.47942
3154.00000,383.38245
3156.00000,168.63319
3158.00000,151.23424
3160.00000,175.56773
3162.00000,126.00436
3164.00000,145.28580
3166.00000,218.98636
3168.00000,272.01010
3170.00000,231.22748
3172.00000,171.52798
3174.00000,208.53033
3176.00000,129.17924
3178.00000,262.64243
3180.00000,363.58200
3182.00000,79.73856
3184.00000,218.06747
3186.00000,263.96033
3188.00000,227.59059
3190.00000,318.57635
3192.00000,200.28789
3194.00000,145.39188
3196.00000,243.88757
3198.00000,299.63974
3200.00000,197.37271
