300.00000,77.20227
302.00000,90.61841
304.00000,90.98681
306.00000,96.01900
308.00000,105.83692
310.00000,109.17065
312.00000,107.17625
314.00000,114.94149
316.00000,143.75067
318.00000,176.78990
320.00000,189.03394
322.00000,185.93367
324.00000,196.06937
326.00000,207.39606
328.00000,201.71548
330.00000,176.52187
332.00000,119.12044
334.00000,81.79522
336.00000,74.63840
338.00000,80.29478
340.00000,117.07661
342.00000,157.60333
344.00000,201.92867
346.00000,232.28378
348.00000,216.15695
350.00000,194.34154
352.00000,173.02432
354.00000,160.45299
356.00000,164.72835
358.00000,171.57492
360.00000,179.72685
362.00000,177.56801
364.00000,164.45227
366.00000,153.48431
368.00000,140.18359
370.00000,123.05130
372.00000,111.35678
374.00000,111.30084
376.00000,120.73860
378.00000,158.62163
380.00000,191.55336
382.00000,201.18401
384.00000,216.43314
386.00000,249.23543
388.00000,267.04739
390.00000,277.51813
392.00000,305.15112
394.00000,337.69559
396.00000,372.93628
398.00000,406.04138
400.00000,425.88055
402.00000,438.86667
404.00000,488.00699
406.00000,555.32941
408.00000,628.58344
410.00000,708.07172
412.00000,784.85040
414.00000,864.65063
416.00000,954.89410
418.00000,1062.48267
420.00000,1192.76306
422.00000,1343.66736
424.00000,1498.05420
426.00000,1648.25244
428.00000,1795.85608
430.00000,1944.04199
432.00000,2104.87720
434.00000,2276.79321
436.00000,2432.86865
438.00000,2552.81421
440.00000,2664.07935
442.00000,2763.66187
444.00000,2841.66089
446.00000,2869.11865
448.00000,2811.77441
450.00000,2719.05176
452.00000,2595.15698
454.00000,2423.00586
456.00000,2206.56152
458.00000,1973.73438
460.00000,1744.82983
462.00000,1519.92480
464.00000,1295.28906
466.00000,1078.09912
468.00000,876.18152
470.00000,708.83020
472.00000,576.21033
474.00000,458.30405
476.00000,350.46268
478.00000,278.77081
480.00000,226.17122
482.00000,169.70186
484.00000,121.72487
486.00000,80.21513
488.00000,56.59629
490.00000,47.76210
492.00000,39.27669
494.00000,39.97787
496.00000,69.00800
498.00000,90.87863
500.00000,77.45950
502.00000,66.30000
504.00000,96.25965
506.00000,119.42014
508.00000,120.00232
510.00000,138.86833
512.00000,183.20135
514.00000,198.16971
516.00000,202.06572
518.00000,233.30095
520.00000,266.74667
522.00000,253.99677
524.00000,247.72894
526.00000,247.13933
528.00000,207.59637
530.00000,163.22543
532.00000,109.94936
534.00000,72.07828
536.00000,64.28181
538.00000,62.38504
540.00000,62.62361
542.00000,57.41109
544.00000,60.14694
546.00000,83.67917
548.00000,107.18295
550.00000,139.74692
552.00000,173.05843
554.00000,192.10341
556.00000,201.23914
558.00000,222.37010
560.00000,263.00516
562.00000,299.54401
564.00000,326.18619
566.00000,386.39627
568.00000,444.87161
570.00000,512.40875
572.00000,589.11761
574.00000,632.66986
576.00000,659.29462
578.00000,701.83661
580.00000,766.47192
582.00000,839.69568
584.00000,920.99158
586.00000,1023.23334
588.00000,1132.92285
590.00000,1243.89172
592.00000,1373.87976
594.00000,1520.76367
596.00000,1650.32983
598.00000,1767.12134
600.00000,1890.32959
602.00000,1996.58862
604.00000,2077.96069
606.00000,2155.31934
608.00000,2223.24194
610.00000,2251.26904
612.00000,2256.90259
614.00000,2223.82031
616.00000,2153.91797
618.00000,2058.00610
620.00000,1916.86560
622.00000,1718.70020
624.00000,1482.70496
626.00000,1251.54382
628.00000,1061.29407
630.00000,907.83923
632.00000,772.05768
634.00000,639.11377
636.00000,513.67511
638.00000,416.17310
640.00000,342.69449
642.00000,276.96255
644.00000,208.53647
646.00000,150.73247
648.00000,134.02896
650.00000,111.29852
652.00000,79.57527
654.00000,62.70270
656.00000,44.13308
658.00000,30.43284
660.00000,38.57822
662.00000,55.27182
664.00000,52.16830
666.00000,48.48235
668.00000,65.12755
670.00000,91.69025
672.00000,117.32304
674.00000,160.46382
676.00000,220.04846
678.00000,257.57785
680.00000,259.18582
682.00000,248.05418
684.00000,228.64941
686.00000,189.10672
688.00000,131.18855
690.00000,84.66829
692.00000,80.53204
694.00000,81.85909
696.00000,67.19227
698.00000,54.54074
700.00000,59.04460
702.00000,46.24073
704.00000,40.35533
706.00000,56.62913
708.00000,78.59644
710.00000,82.26458
712.00000,69.78439
714.00000,71.02070
716.00000,89.71078
718.00000,105.67995
720.00000,121.24010
722.00000,112.83794
724.00000,104.35555
726.00000,118.51541
728.00000,122.34584
730.00000,97.37056
732.00000,64.46816
734.00000,45.12527
736.00000,43.50406
738.00000,56.45911
740.00000,62.75109
742.00000,84.72028
744.00000,116.62921
746.00000,107.17453
748.00000,115.12607
750.00000,100.56495
752.00000,58.67405
754.00000,40.58030
756.00000,32.49677
758.00000,21.23961
760.00000,18.60149
762.00000,25.86680
764.00000,24.42513
766.00000,35.82846
768.00000,56.24741
770.00000,64.57090
772.00000,56.03295
774.00000,56.04641
776.00000,61.07362
778.00000,48.38351
780.00000,22.56713
782.00000,18.14659
784.00000,27.37217
786.00000,46.17001
788.00000,54.20936
790.00000,40.95414
792.00000,40.12544
794.00000,35.04503
796.00000,44.83079
798.00000,55.87656
800.00000,21.26152
802.00000,22.89345
804.00000,32.37278
806.00000,33.65115
808.00000,51.29920
810.00000,72.00702
812.00000,92.95421
814.00000,96.14571
816.00000,81.65215
818.00000,72.54420
820.00000,55.17018
822.00000,44.41213
824.00000,41.33821
826.00000,30.28614
828.00000,13.48233
830.00000,5.31790
832.00000,20.09880
834.00000,44.63962
836.00000,48.08584
838.00000,40.78635
840.00000,50.49649
842.00000,67.08480
844.00000,68.71980
846.00000,70.46476
848.00000,64.26312
850.00000,50.08920
852.00000,50.92862
854.00000,77.73113
856.00000,78.71324
858.00000,77.52446
860.00000,88.27491
862.00000,94.42355
864.00000,92.17747
866.00000,89.93912
868.00000,89.20368
870.00000,90.54942
872.00000,93.39840
874.00000,84.12502
876.00000,70.36119
878.00000,69.23438
880.00000,82.87194
882.00000,90.16856
884.00000,83.89994
886.00000,86.78382
888.00000,99.80544
890.00000,98.90543
892.00000,98.61003
894.00000,100.13686
896.00000,96.85982
898.00000,95.82126
900.00000,108.82658
902.00000,89.44702
904.00000,70.90032
906.00000,85.76034
908.00000,98.81841
910.00000,71.77705
912.00000,71.73711
914.00000,78.18303
916.00000,53.20154
918.00000,58.00938
920.00000,55.77842
922.00000,57.31707
924.00000,69.31888
926.00000,74.32108
928.00000,96.67347
930.00000,106.44546
932.00000,116.30649
934.00000,140.25150
936.00000,143.34290
938.00000,166.70833
940.00000,179.29636
942.00000,165.61452
944.00000,164.37611
946.00000,180.45233
948.00000,191.47659
950.00000,204.19426
952.00000,225.71826
954.00000,234.90523
956.00000,249.34630
958.00000,264.46683
960.00000,292.12408
962.00000,340.71915
964.00000,355.40741
966.00000,370.11240
968.00000,369.78363
970.00000,339.68100
972.00000,331.15027
974.00000,324.90350
976.00000,300.04785
978.00000,275.61237
980.00000,279.01761
982.00000,287.10782
984.00000,292.98383
986.00000,307.69318
988.00000,340.88242
990.00000,385.67685
992.00000,430.26819
994.00000,516.81494
996.00000,681.63770
998.00000,891.94470
1000.00000,1042.07458
1002.00000,1055.83203
1004.00000,938.69141
1006.00000,740.91669
1008.00000,517.78345
1010.00000,346.12521
1012.00000,251.79892
1014.00000,203.21291
1016.00000,168.93335
1018.00000,164.09537
1020.00000,136.20343
1022.00000,140.84364
1024.00000,199.73335
1026.00000,224.28304
1028.00000,281.45920
1030.00000,333.60284
1032.00000,340.35913
1034.00000,321.16425
1036.00000,293.77121
1038.00000,240.74756
1040.00000,192.42621
1042.00000,169.83467
1044.00000,143.38477
1046.00000,123.21772
1048.00000,132.01793
1050.00000,146.15044
1052.00000,137.75494
1054.00000,146.54283
1056.00000,167.00696
1058.00000,200.33418
1060.00000,237.56145
1062.00000,244.75662
1064.00000,215.35812
1066.00000,194.72224
1068.00000,179.34109
1070.00000,148.33658
1072.00000,145.31070
1074.00000,134.44751
1076.00000,137.44508
1078.00000,171.75934
1080.00000,212.43298
1082.00000,297.01257
1084.00000,367.50531
1086.00000,397.53790
1088.00000,390.84695
1090.00000,308.87921
1092.00000,220.55373
1094.00000,184.33287
1096.00000,183.76855
1098.00000,169.61336
1100.00000,170.20959
1102.00000,198.84570
1104.00000,237.57289
1106.00000,252.07066
1108.00000,234.37567
1110.00000,264.22668
1112.00000,271.84341
1114.00000,214.67078
1116.00000,176.61887
1118.00000,157.31363
1120.00000,130.89995
1122.00000,103.19572
1124.00000,91.93060
1126.00000,88.10326
1128.00000,97.43162
1130.00000,92.92980
1132.00000,72.04104
1134.00000,68.18667
1136.00000,66.51276
1138.00000,48.64008
1140.00000,44.62024
1142.00000,69.44244
1144.00000,73.58721
1146.00000,98.14020
1148.00000,112.52708
1150.00000,128.40376
1152.00000,209.15280
1154.00000,282.12244
1156.00000,342.25696
1158.00000,394.75192
1160.00000,415.41199
1162.00000,383.57813
1164.00000,349.30063
1166.00000,297.48737
1168.00000,234.67183
1170.00000,208.17305
1172.00000,186.59721
1174.00000,167.06311
1176.00000,182.99380
1178.00000,232.15038
1180.00000,249.65669
1182.00000,248.34441
1184.00000,237.57201
1186.00000,232.99477
1188.00000,244.59265
1190.00000,231.64894
1192.00000,212.25134
1194.00000,210.48819
1196.00000,225.73636
1198.00000,234.90361
1200.00000,209.27077
1202.00000,206.04167
1204.00000,226.20193
1206.00000,201.84377
1208.00000,159.01836
1210.00000,130.70512
1212.00000,121.70845
1214.00000,116.93370
1216.00000,108.02486
1218.00000,113.74937
1220.00000,154.34114
1222.00000,212.01393
1224.00000,279.64752
1226.00000,422.15146
1228.00000,529.36005
1230.00000,554.52991
1232.00000,514.76801
1234.00000,407.95358
1236.00000,303.51678
1238.00000,270.43826
1240.00000,271.58130
1242.00000,239.90115
1244.00000,239.09625
1246.00000,222.46751
1248.00000,161.56294
1250.00000,104.97469
1252.00000,110.51212
1254.00000,112.69793
1256.00000,106.50086
1258.00000,110.52349
1260.00000,120.88561
1262.00000,121.90568
1264.00000,92.79552
1266.00000,91.88713
1268.00000,138.92604
1270.00000,161.61168
1272.00000,214.28168
1274.00000,322.29608
1276.00000,453.02399
1278.00000,558.54901
1280.00000,625.67694
1282.00000,652.76489
1284.00000,637.18713
1286.00000,570.87244
1288.00000,455.69199
1290.00000,338.92230
1292.00000,275.00235
1294.00000,239.79765
1296.00000,183.31673
1298.00000,144.36482
1300.00000,122.10020
1302.00000,86.60032
1304.00000,53.97263
1306.00000,71.38040
1308.00000,73.47586
1310.00000,101.32401
1312.00000,136.00237
1314.00000,121.39200
1316.00000,122.35595
1318.00000,122.26465
1320.00000,140.13998
1322.00000,157.01270
1324.00000,125.05627
1326.00000,171.24352
1328.00000,159.57687
1330.00000,125.27612
1332.00000,175.10446
1334.00000,119.14162
1336.00000,112.14105
1338.00000,118.28193
1340.00000,90.03483
1342.00000,133.68964
1344.00000,172.32990
1346.00000,230.96382
1348.00000,338.92938
1350.00000,469.26221
1352.00000,592.46222
1354.00000,732.10107
1356.00000,866.25800
1358.00000,933.13190
1360.00000,890.86206
1362.00000,769.23993
1364.00000,640.28943
1366.00000,539.06885
1368.00000,474.88913
1370.00000,472.98825
1372.00000,498.00391
1374.00000,502.64075
1376.00000,474.05557
1378.00000,433.09506
1380.00000,385.94833
1382.00000,334.63495
1384.00000,315.10666
1386.00000,365.16910
1388.00000,453.47141
1390.00000,480.28952
1392.00000,489.58820
1394.00000,454.87930
1396.00000,295.45779
1398.00000,234.64418
1400.00000,161.62860
1402.00000,68.73857
1404.00000,52.59389
1406.00000,44.61521
1408.00000,32.00931
1410.00000,31.22334
1412.00000,29.73552
1414.00000,6.22582
1416.00000,6.70254
1418.00000,4.04997
1420.00000,7.76692
1422.00000,38.86374
1424.00000,50.12212
1426.00000,23.64543
1428.00000,50.35549
1430.00000,115.85794
1432.00000,116.57104
1434.00000,152.85942
1436.00000,193.85138
1438.00000,251.50136
1440.00000,341.60095
1442.00000,393.63852
1444.00000,471.00516
1446.00000,563.47260
1448.00000,613.40582
1450.00000,613.20703
1452.00000,629.17816
1454.00000,637.35132
1456.00000,640.44849
1458.00000,646.36420
1460.00000,623.50421
1462.00000,626.59955
1464.00000,586.38782
1466.00000,493.17914
1468.00000,453.25708
1470.00000,476.86096
1472.00000,458.57654
1474.00000,463.46130
1476.00000,550.40167
1478.00000,598.60925
1480.00000,698.50574
1482.00000,768.47839
1484.00000,766.92419
1486.00000,751.04694
1488.00000,662.17383
1490.00000,582.58472
1492.00000,521.62207
1494.00000,441.18552
1496.00000,370.45438
1498.00000,326.87668
1500.00000,254.95639
1502.00000,173.79584
1504.00000,153.76723
1506.00000,135.82300
1508.00000,90.52965
1510.00000,62.48184
1512.00000,62.37844
1514.00000,26.34231
1516.00000,3.49053
1518.00000,6.00016
1520.00000,16.99312
1522.00000,19.82418
1524.00000,7.30746
1526.00000,20.87161
1528.00000,26.73276
1530.00000,6.62752
1532.00000,21.31467
1534.00000,29.55427
1536.00000,16.03624
1538.00000,45.27071
1540.00000,127.44112
1542.00000,111.15627
1544.00000,147.74968
1546.00000,231.70020
1548.00000,281.75952
1550.00000,336.94980
1552.00000,381.77145
1554.00000,412.32104
1556.00000,407.81799
1558.00000,373.95026
1560.00000,387.44778
1562.00000,369.99200
1564.00000,389.48712
1566.00000,466.53143
1568.00000,493.95554
1570.00000,647.93793
1572.00000,737.73926
1574.00000,805.82501
1576.00000,1018.15295
1578.00000,1094.99146
1580.00000,1149.75476
1582.00000,1116.33142
1584.00000,938.05011
1586.00000,786.56927
1588.00000,676.53107
1590.00000,575.85742
1592.00000,482.17197
1594.00000,400.81912
1596.00000,322.35614
1598.00000,360.86298
1600.00000,405.34674
1602.00000,394.77213
1604.00000,437.84579
1606.00000,376.12302
1608.00000,298.59140
1610.00000,238.09950
1612.00000,141.36003
1614.00000,82.93939
1616.00000,63.64993
1618.00000,48.04039
1620.00000,18.83846
1622.00000,1.45887
1624.00000,31.18657
1626.00000,28.62987
1628.00000,3.45618
1630.00000,12.91161
1632.00000,6.45979
1634.00000,21.21140
1636.00000,22.60607
1638.00000,15.04533
1640.00000,51.09232
1642.00000,20.63231
1644.00000,3.37979
1646.00000,15.17131
1648.00000,3.90468
1650.00000,13.45253
1652.00000,34.14207
1654.00000,33.94488
1656.00000,25.63914
1658.00000,49.72633
1660.00000,67.21681
1662.00000,37.45835
1664.00000,15.43608
1666.00000,45.50045
1668.00000,51.97260
1670.00000,64.35016
1672.00000,53.37467
1674.00000,31.54374
1676.00000,61.64126
1678.00000,72.23383
1680.00000,65.24957
1682.00000,52.21149
1684.00000,47.20752
1686.00000,68.18651
1688.00000,18.85464
1690.00000,24.98975
1692.00000,80.13850
1694.00000,23.84217
1696.00000,39.64166
1698.00000,71.37136
1700.00000,60.06495
1702.00000,52.15077
1704.00000,88.61222
1706.00000,80.75753
1708.00000,66.27599
1710.00000,77.47761
1712.00000,73.92056
1714.00000,79.57662
1716.00000,92.76995
1718.00000,93.08092
1720.00000,84.55750
1722.00000,99.70970
1724.00000,112.49662
1726.00000,131.30444
1728.00000,135.46956
1730.00000,108.38590
1732.00000,134.94679
1734.00000,70.35115
1736.00000,53.31427
1738.00000,163.26575
1740.00000,114.09643
1742.00000,132.36252
1744.00000,96.02119
1746.00000,20.66410
1748.00000,93.98822
1750.00000,59.12434
1752.00000,82.61677
1754.00000,119.94931
1756.00000,82.50444
1758.00000,128.77406
1760.00000,92.26736
1762.00000,112.02308
1764.00000,180.53191
1766.00000,124.72276
1768.00000,136.39966
1770.00000,171.49240
1772.00000,123.68743
1774.00000,62.94218
1776.00000,146.41652
1778.00000,124.50498
1780.00000,87.00256
1782.00000,127.55257
1784.00000,143.28972
1786.00000,101.49035
1788.00000,159.71251
1790.00000,190.17241
1792.00000,136.18321
1794.00000,221.84230
1796.00000,186.89313
1798.00000,167.23477
1800.00000,216.71446
1802.00000,200.75761
1804.00000,222.45047
1806.00000,231.27222
1808.00000,263.58981
1810.00000,301.50055
1812.00000,240.70705
1814.00000,316.59879
1816.00000,335.41055
1818.00000,289.85312
1820.00000,345.40540
1822.00000,288.04367
1824.00000,311.23874
1826.00000,376.37650
1828.00000,366.58698
1830.00000,368.49323
1832.00000,372.98465
1834.00000,329.69403
1836.00000,323.60730
1838.00000,393.22037
1840.00000,332.81473
1842.00000,421.82175
1844.00000,461.70071
1846.00000,345.21054
1848.00000,411.55652
1850.00000,390.84354
1852.00000,361.30917
1854.00000,422.54404
1856.00000,458.80994
1858.00000,352.32526
1860.00000,321.80176
1862.00000,316.68826
1864.00000,197.06909
1866.00000,44.13785
1868.00000,1.39167
1870.00000,-1.63173
1872.00000,41.31401
1874.00000,123.97496
1876.00000,31.76565
1878.00000,-16.03161
1880.00000,19.24143
1882.00000,27.15003
1884.00000,0.47117
1886.00000,35.55681
1888.00000,28.73228
1890.00000,2.38918
1892.00000,43.30377
1894.00000,36.89639
1896.00000,2.09588
1898.00000,62.50003
1900.00000,121.77290
1902.00000,5.17507
1904.00000,80.69231
1906.00000,71.89626
1908.00000,10.49691
1910.00000,89.32574
1912.00000,11.38855
1914.00000,58.08738
1916.00000,105.86019
1918.00000,27.73355
1920.00000,16.71074
1922.00000,35.02516
1924.00000,6.19846
1926.00000,20.56884
1928.00000,95.61360
1930.00000,20.85231
1932.00000,81.88321
1934.00000,115.35622
1936.00000,53.74530
1938.00000,121.20564
1940.00000,66.07018
1942.00000,84.54855
1944.00000,113.30565
1946.00000,16.30578
1948.00000,66.71667
1950.00000,126.02377
1952.00000,70.44109
1954.00000,12.98125
1956.00000,81.98450
1958.00000,43.96447
1960.00000,64.37202
1962.00000,87.35389
1964.00000,33.58366
1966.00000,138.16576
1968.00000,84.68645
1970.00000,8.98833
1972.00000,66.94007
1974.00000,105.67421
1976.00000,83.30852
1978.00000,101.02879
1980.00000,118.81164
1982.00000,96.43978
1984.00000,137.79623
1986.00000,70.68079
1988.00000,82.31865
1990.00000,163.05151
1992.00000,70.23693
1994.00000,57.63283
1996.00000,90.17766
1998.00000,75.33061
2000.00000,113.95129
2002.00000,111.72894
2004.00000,107.13167
2006.00000,113.19188
2008.00000,117.78729
2010.00000,133.47244
2012.00000,146.38354
2014.00000,139.26001
2016.00000,128.47006
2018.00000,158.95865
2020.00000,181.21468
2022.00000,172.49174
2024.00000,166.80524
2026.00000,192.68892
2028.00000,197.21158
2030.00000,180.47223
2032.00000,179.09164
2034.00000,198.05937
2036.00000,184.99367
2038.00000,171.92805
2040.00000,169.68977
2042.00000,155.83052
2044.00000,140.80653
2046.00000,154.01863
2048.00000,171.32353
2050.00000,170.04604
2052.00000,166.63707
2054.00000,153.90825
2056.00000,140.09251
2058.00000,137.25505
2060.00000,143.70819
2062.00000,145.32541
2064.00000,152.00490
2066.00000,149.82764
2068.00000,138.59845
2070.00000,147.78549
2072.00000,136.65140
2074.00000,119.52086
2076.00000,120.34211
2078.00000,120.78654
2080.00000,86.99294
2082.00000,75.20750
2084.00000,91.20995
2086.00000,87.38783
2088.00000,57.90507
2090.00000,64.56815
2092.00000,72.82042
2094.00000,54.78958
2096.00000,63.61933
2098.00000,119.17799
2100.00000,136.58055
2102.00000,126.27745
2104.00000,151.26079
2106.00000,157.58708
2108.00000,155.65454
2110.00000,163.86089
2112.00000,170.55423
2114.00000,157.02470
2116.00000,160.37698
2118.00000,152.19716
2120.00000,136.85974
2122.00000,154.59779
2124.00000,172.40286
2126.00000,163.32300
2128.00000,140.76744
2130.00000,136.14749
2132.00000,157.52715
2134.00000,176.33554
2136.00000,184.58583
2138.00000,177.57346
2140.00000,155.55209
2142.00000,157.95410
2144.00000,177.71991
2146.00000,181.78784
2148.00000,166.40723
2150.00000,172.44545
2152.00000,176.75291
2154.00000,168.80252
2156.00000,162.61836
2158.00000,164.86426
2160.00000,151.37915
2162.00000,166.39497
2164.00000,193.63939
2166.00000,186.14581
2168.00000,193.93767
2170.00000,178.79565
2172.00000,171.58412
2174.00000,187.80272
2176.00000,157.50693
2178.00000,136.78424
2180.00000,155.21199
2182.00000,171.45348
2184.00000,152.72833
2186.00000,172.13390
2188.00000,189.42558
2190.00000,169.63562
2192.00000,140.63367
2194.00000,146.71832
2196.00000,155.75714
2198.00000,153.99699
2200.00000,151.43147
2202.00000,160.14670
2204.00000,182.79433
2206.00000,172.70338
2208.00000,163.01938
2210.00000,195.83185
2212.00000,190.74548
2214.00000,186.52911
2216.00000,184.92563
2218.00000,169.79459
2220.00000,162.80104
2222.00000,167.62563
2224.00000,172.19807
2226.00000,189.88837
2228.00000,221.57068
2230.00000,206.90358
2232.00000,240.32959
2234.00000,259.04694
2236.00000,206.41872
2238.00000,218.91528
2240.00000,228.71980
2242.00000,208.58592
2244.00000,192.10205
2246.00000,202.11899
2248.00000,205.53087
2250.00000,189.52713
2252.00000,183.83124
2254.00000,205.90399
2256.00000,210.61026
2258.00000,182.41774
2260.00000,184.69910
2262.00000,207.49533
2264.00000,168.52737
2266.00000,178.31738
2268.00000,188.37437
2270.00000,169.21559
2272.00000,171.89539
2274.00000,192.72891
2276.00000,156.78323
2278.00000,136.48386
2280.00000,185.27025
2282.00000,194.52248
2284.00000,173.07721
2286.00000,179.15291
2288.00000,197.91518
2290.00000,173.18907
2292.00000,153.14142
2294.00000,151.35249
2296.00000,157.06419
2298.00000,154.34680
2300.00000,144.71828
2302.00000,182.38364
2304.00000,192.15237
2306.00000,164.93985
2308.00000,193.51042
2310.00000,189.64230
2312.00000,180.26009
2314.00000,182.41063
2316.00000,177.62497
2318.00000,182.11388
2320.00000,152.58540
2322.00000,122.02551
2324.00000,126.97321
2326.00000,138.19928
2328.00000,158.17322
2330.00000,136.23036
2332.00000,103.30860
2334.00000,126.23459
2336.00000,128.50859
2338.00000,114.06255
2340.00000,121.80770
2342.00000,137.71553
2344.00000,109.46848
2346.00000,127.57761
2348.00000,135.40082
2350.00000,114.94105
2352.00000,129.27901
2354.00000,92.99094
2356.00000,77.51445
2358.00000,93.95078
2360.00000,99.99794
2362.00000,127.48780
2364.00000,129.42516
2366.00000,110.30524
2368.00000,105.65423
2370.00000,117.48148
2372.00000,111.73415
2374.00000,103.37257
2376.00000,115.92809
2378.00000,139.13484
2380.00000,136.84146
2382.00000,131.12914
2384.00000,138.18967
2386.00000,137.37941
2388.00000,103.15722
2390.00000,82.04833
2392.00000,78.05368
2394.00000,69.86092
2396.00000,45.78706
2398.00000,13.37514
2400.00000,8.87660
2402.00000,20.34946
2404.00000,31.20956
2406.00000,62.67666
2408.00000,43.21374
2410.00000,18.58297
2412.00000,44.53156
2414.00000,76.88053
2416.00000,50.74354
2418.00000,30.16253
2420.00000,41.34978
2422.00000,48.80799
2424.00000,57.23399
2426.00000,87.13327
2428.00000,83.78819
2430.00000,41.86182
2432.00000,52.28545
2434.00000,82.94277
2436.00000,71.66566
2438.00000,44.56209
2440.00000,69.22600
2442.00000,104.63474
2444.00000,91.63748
2446.00000,89.09381
2448.00000,130.09090
2450.00000,118.06660
2452.00000,106.02301
2454.00000,120.83302
2456.00000,127.71329
2458.00000,112.20422
2460.00000,157.76561
2462.00000,181.22231
2464.00000,159.58087
2466.00000,147.62247
2468.00000,143.61462
2470.00000,126.49917
2472.00000,127.58863
2474.00000,143.87605
2476.00000,116.44086
2478.00000,81.92319
2480.00000,133.17177
2482.00000,154.85664
2484.00000,63.50131
2486.00000,140.81157
2488.00000,149.13193
2490.00000,84.45116
2492.00000,74.20403
2494.00000,57.50788
2496.00000,47.27737
2498.00000,58.90042
2500.00000,60.64244
2502.00000,26.29048
2504.00000,21.06044
2506.00000,31.17194
2508.00000,42.40513
2510.00000,59.85459
2512.00000,74.79798
2514.00000,68.11066
2516.00000,89.34222
2518.00000,110.48464
2520.00000,55.25286
2522.00000,57.98106
2524.00000,71.67220
2526.00000,50.56638
2528.00000,37.01491
2530.00000,65.99717
2532.00000,65.81777
2534.00000,23.75156
2536.00000,5.93100
2538.00000,51.11351
2540.00000,47.92342
2542.00000,32.97102
2544.00000,33.68839
2546.00000,23.21268
2548.00000,33.90100
2550.00000,21.10174
2552.00000,36.79366
2554.00000,77.24949
2556.00000,16.76161
2558.00000,48.13863
2560.00000,83.64085
2562.00000,46.67417
2564.00000,44.31898
2566.00000,73.58846
2568.00000,46.05949
2570.00000,21.66360
2572.00000,65.43177
2574.00000,50.11381
2576.00000,31.77084
2578.00000,33.81965
2580.00000,46.12613
2582.00000,66.33280
2584.00000,61.36309
2586.00000,71.11787
2588.00000,68.93431
2590.00000,23.51281
2592.00000,40.12309
2594.00000,48.69626
2596.00000,39.80379
2598.00000,40.43093
2600.00000,42.07261
2602.00000,103.94705
2604.00000,106.36066
2606.00000,58.71661
2608.00000,87.94950
2610.00000,78.07874
2612.00000,46.99502
2614.00000,54.18290
2616.00000,75.54981
2618.00000,26.84539
2620.00000,11.53806
2622.00000,36.61245
2624.00000,53.75744
2626.00000,58.68129
2628.00000,73.45767
2630.00000,62.62046
2632.00000,62.93822
2634.00000,94.74792
2636.00000,51.32178
2638.00000,64.36820
2640.00000,82.07010
2642.00000,52.31258
2644.00000,77.63970
2646.00000,84.84583
2648.00000,87.66344
2650.00000,102.09488
2652.00000,98.91541
2654.00000,81.59766
2656.00000,115.00794
2658.00000,100.30634
2660.00000,38.97768
2662.00000,134.84862
2664.00000,115.44638
2666.00000,61.61554
2668.00000,99.93867
2670.00000,129.41841
2672.00000,74.27603
2674.00000,87.86359
2676.00000,130.85855
2678.00000,82.97126
2680.00000,61.10568
2682.00000,112.82006
2684.00000,122.27311
2686.00000,79.45412
2688.00000,113.75933
2690.00000,106.06607
2692.00000,92.70672
2694.00000,112.95282
2696.00000,123.12172
2698.00000,96.61359
2700.00000,125.27906
2702.00000,171.68326
2704.00000,138.65581
2706.00000,66.84830
2708.00000,147.82008
2710.00000,156.92136
2712.00000,64.23077
2714.00000,107.94351
2716.00000,155.85352
2718.00000,80.11322
2720.00000,62.32131
2722.00000,173.80371
2724.00000,106.03479
2726.00000,99.34035
2728.00000,134.79547
2730.00000,119.66870
2732.00000,116.53931
2734.00000,125.88383
2736.00000,112.99896
2738.00000,107.21350
2740.00000,135.06400
2742.00000,123.70198
2744.00000,100.81361
2746.00000,135.04817
2748.00000,175.20523
2750.00000,115.71651
2752.00000,148.22820
2754.00000,178.08453
2756.00000,164.59683
2758.00000,170.04333
2760.00000,95.47890
2762.00000,108.30806
2764.00000,143.59148
2766.00000,104.98512
2768.00000,115.52164
2770.00000,40.80220
2772.00000,79.52332
2774.00000,167.17932
2776.00000,37.99278
2778.00000,89.80315
2780.00000,152.71922
2782.00000,118.25802
2784.00000,100.62358
2786.00000,128.49345
2788.00000,112.65604
2790.00000,93.93438
2792.00000,106.81547
2794.00000,94.26355
2796.00000,88.62277
2798.00000,93.39321
2800.00000,98.09711
2802.00000,108.33129
2804.00000,132.75266
2806.00000,107.33964
2808.00000,97.37189
2810.00000,128.39079
2812.00000,84.43276
2814.00000,45.50428
2816.00000,143.95216
2818.00000,208.84460
2820.00000,70.54094
2822.00000,146.98820
2824.00000,185.02414
2826.00000,150.53461
2828.00000,180.80449
2830.00000,167.82451
2832.00000,228.38188
2834.00000,265.32169
2836.00000,255.54922
2838.00000,324.90314
2840.00000,340.85464
2842.00000,407.09631
2844.00000,479.08694
2846.00000,476.31992
2848.00000,577.11523
2850.00000,619.61731
2852.00000,651.64740
2854.00000,749.22552
2856.00000,801.55249
2858.00000,810.25934
2860.00000,792.50836
2862.00000,799.02405
2864.00000,842.45135
2866.00000,820.50739
2868.00000,823.94543
2870.00000,870.38556
2872.00000,887.29291
2874.00000,847.19269
2876.00000,811.89026
2878.00000,735.32458
2880.00000,625.00964
2882.00000,536.66400
2884.00000,356.21683
2886.00000,143.38054
2888.00000,109.90858
2890.00000,232.02510
2892.00000,160.32358
2894.00000,224.21770
2896.00000,293.01724
2898.00000,236.40416
2900.00000,281.14755
2902.00000,337.20319
2904.00000,338.28104
2906.00000,359.09949
2908.00000,424.46085
2910.00000,366.54483
2912.00000,410.27106
2914.00000,491.81277
2916.00000,468.22299
2918.00000,459.52014
2920.00000,515.00476
2922.00000,519.20972
2924.00000,503.09470
2926.00000,563.63190
2928.00000,510.74399
2930.00000,489.41696
2932.00000,550.50226
2934.00000,562.11322
2936.00000,469.00092
2938.00000,517.93274
2940.00000,476.33948
2942.00000,331.02463
2944.00000,394.01422
2946.00000,337.46643
2948.00000,351.42081
2950.00000,359.87350
2952.00000,210.93648
2954.00000,261.56546
2956.00000,245.54539
2958.00000,176.09981
2960.00000,217.34076
2962.00000,284.50790
2964.00000,184.08900
2966.00000,195.91759
2968.00000,252.51266
2970.00000,97.87796
2972.00000,120.20799
2974.00000,176.53403
2976.00000,144.98732
2978.00000,78.59516
2980.00000,45.53120
2982.00000,56.41919
2984.00000,61.01563
2986.00000,22.95216
2988.00000,-4.98373
2990.00000,82.59023
2992.00000,76.71611
2994.00000,-1.00816
2996.00000,0.06782
2998.00000,1.59729
3000.00000,31.52834
3002.00000,52.45513
3004.00000,64.46951
3006.00000,105.06215
3008.00000,40.30198
3010.00000,44.73495
3012.00000,125.55431
3014.00000,94.04315
3016.00000,-6.50882
3018.00000,111.08261
3020.00000,188.12932
3022.00000,92.18095
3024.00000,214.47269
3026.00000,272.90918
3028.00000,196.82695
3030.00000,174.89073
3032.00000,319.07767
3034.00000,405.47244
3036.00000,385.82294
3038.00000,428.26993
3040.00000,544.46893
3042.00000,488.67242
3044.00000,550.52222
3046.00000,625.79285
3048.00000,613.78546
3050.00000,701.18427
3052.00000,889.98480
3054.00000,897.65393
3056.00000,852.31665
3058.00000,948.86914
3060.00000,872.16327
3062.00000,917.81573
3064.00000,949.35529
3066.00000,797.94196
3068.00000,702.10077
3070.00000,699.17725
3072.00000,553.00983
3074.00000,403.71960
3076.00000,478.66479
3078.00000,368.01007
3080.00000,307.86639
3082.00000,330.72629
3084.00000,241.80591
3086.00000,80.51382
3088.00000,183.72188
3090.00000,187.45090
3092.00000,49.31713
3094.00000,155.84894
3096.00000,150.78175
3098.00000,113.93149
3100.00000,139.59471
3102.00000,174.62383
3104.00000,161.97807
3106.00000,42.30237
3108.00000,25.06512
3110.00000,121.37321
3112.00000,63.98079
3114.00000,16.49729
3116.00000,113.14403
3118.00000,191.42767
3120.00000,80.45229
3122.00000,10.37322
3124.00000,90.60311
3126.00000,106.83151
3128.00000,14.86575
3130.00000,101.92832
3132.00000,165.74095
3134.00000,71.70187
3136.00000,10.36250
3138.00000,115.21657
3140.00000,10.84552
3142.00000,113.43121
3144.00000,223.91550
3146.00000,46.28005
3148.00000,70.76832
3150.00000,250.41978
3152.00000,221.71883
3154.00000,93.18590
3156.00000,225.26161
3158.00000,106.50993
3160.00000,64.98085
3162.00000,198.75188
3164.00000,201.76897
3166.00000,71.37087
3168.00000,141.56654
3170.00000,245.34779
3172.00000,146.22559
3174.00000,47.20598
3176.00000,214.15532
3178.00000,229.05003
3180.00000,100.75632
3182.00000,199.62799
3184.00000,237.81618
3186.00000,169.68231
3188.00000,105.41380
3190.00000,123.12424
3192.00000,175.03384
3194.00000,157.50087
3196.00000,158.04662
3198.00000,206.24983
3200.00000,166.11456
