300.00000,83.15310
302.00000,83.69865
304.00000,75.99524
306.00000,91.43164
308.00000,121.29102
310.00000,143.44246
312.00000,154.99670
314.00000,151.77318
316.00000,153.26439
318.00000,168.52602
320.00000,185.81569
322.00000,190.13492
324.00000,181.52443
326.00000,168.93188
328.00000,158.16565
330.00000,146.58841
332.00000,130.81590
334.00000,122.60994
336.00000,137.40532
338.00000,167.45518
340.00000,185.20076
342.00000,220.53731
344.00000,252.57350
346.00000,257.27100
348.00000,243.55296
350.00000,209.93211
352.00000,183.60481
354.00000,151.40700
356.00000,102.39146
358.00000,85.19762
360.00000,98.19894
362.00000,124.57628
364.00000,126.82141
366.00000,92.08981
368.00000,100.07421
370.00000,114.31041
372.00000,123.54511
374.00000,142.75990
376.00000,149.16225
378.00000,161.17708
380.00000,178.02338
382.00000,188.11862
384.00000,195.28151
386.00000,218.55429
388.00000,236.97708
390.00000,242.00751
392.00000,242.77228
394.00000,242.75465
396.00000,243.76892
398.00000,246.74733
400.00000,248.74019
402.00000,256.41617
404.00000,297.33563
406.00000,346.78439
408.00000,374.74115
410.00000,400.32120
412.00000,473.14639
414.00000,549.33582
416.00000,630.66077
418.00000,728.46204
420.00000,838.28687
422.00000,976.24988
424.00000,1146.69910
426.00000,1322.00769
428.00000,1481.83582
430.00000,1638.09497
432.00000,1780.00964
434.00000,1930.45972
436.00000,2110.62964
438.00000,2294.55298
440.00000,2420.32373
442.00000,2519.82056
444.00000,2612.56860
446.00000,2670.63379
448.00000,2657.35840
450.00000,2582.19922
452.00000,2453.63989
454.00000,2280.09448
456.00000,2078.47412
458.00000,1868.50183
460.00000,1649.78149
462.00000,1423.82678
464.00000,1206.30823
466.00000,1021.48138
468.00000,877.45807
470.00000,739.72766
472.00000,594.38025
474.00000,471.11566
476.00000,399.65244
478.00000,358.01611
480.00000,313.65887
482.00000,263.16757
484.00000,230.55353
486.00000,213.70419
488.00000,200.17615
490.00000,187.11458
492.00000,175.56979
494.00000,155.76491
496.00000,135.27127
498.00000,115.96473
500.00000,103.70963
502.00000,104.59802
504.00000,86.19856
506.00000,62.53710
508.00000,62.70600
510.00000,85.36327
512.00000,97.87550
514.00000,117.23840
516.00000,135.34830
518.00000,138.68063
520.00000,141.58249
522.00000,155.77020
524.00000,167.81059
526.00000,174.46669
528.00000,163.01263
530.00000,100.25740
532.00000,85.14986
534.00000,86.36711
536.00000,65.45580
538.00000,76.85205
540.00000,85.74644
542.00000,101.05597
544.00000,112.19267
546.00000,105.62753
548.00000,124.99351
550.00000,161.24698
552.00000,185.22766
554.00000,190.44107
556.00000,198.51582
558.00000,219.57770
560.00000,249.24490
562.00000,271.05447
564.00000,286.66049
566.00000,327.11893
568.00000,367.00031
570.00000,400.65082
572.00000,429.05399
574.00000,441.94016
576.00000,450.09409
578.00000,481.74146
580.00000,536.03497
582.00000,590.48596
584.00000,644.84961
586.00000,729.10553
588.00000,833.83832
590.00000,935.74414
592.00000,1038.14307
594.00000,1164.27649
596.00000,1292.29358
598.00000,1401.87451
600.00000,1510.59155
602.00000,1650.70117
604.00000,1774.50269
606.00000,1857.43201
608.00000,1920.90149
610.00000,1982.83862
612.00000,1996.63916
614.00000,1954.52966
616.00000,1894.99683
618.00000,1823.18494
620.00000,1677.46680
622.00000,1492.71277
624.00000,1290.34705
626.00000,1087.00488
628.00000,914.10980
630.00000,785.64844
632.00000,676.41541
634.00000,582.13031
636.00000,509.69580
638.00000,442.53931
640.00000,375.92645
642.00000,330.51138
644.00000,305.90240
646.00000,276.95190
648.00000,248.04823
650.00000,229.01294
652.00000,218.20940
654.00000,212.29991
656.00000,211.91907
658.00000,194.23039
660.00000,166.97375
662.00000,144.81917
664.00000,133.45122
666.00000,138.48688
668.00000,120.01833
670.00000,114.57861
672.00000,152.75746
674.00000,176.08673
676.00000,214.54036
678.00000,245.72794
680.00000,238.93201
682.00000,206.79823
684.00000,179.58975
686.00000,143.13722
688.00000,111.82119
690.00000,105.21088
692.00000,105.29469
694.00000,106.54057
696.00000,103.37868
698.00000,93.90890
700.00000,84.45747
702.00000,84.24686
704.00000,88.63150
706.00000,95.60777
708.00000,102.73417
710.00000,105.29726
712.00000,115.00085
714.00000,118.43912
716.00000,110.74977
718.00000,109.49071
720.00000,127.18469
722.00000,153.50220
724.00000,154.08417
726.00000,130.73161
728.00000,131.16805
730.00000,131.00841
732.00000,110.65285
734.00000,86.29275
736.00000,85.10762
738.00000,103.80083
740.00000,138.94681
742.00000,166.88556
744.00000,163.52313
746.00000,145.80841
748.00000,170.85883
750.00000,126.01212
752.00000,57.40912
754.00000,86.99819
756.00000,69.10944
758.00000,72.35202
760.00000,97.10801
762.00000,99.32449
764.00000,97.00298
766.00000,87.01091
768.00000,75.29198
770.00000,73.90328
772.00000,78.75944
774.00000,66.24667
776.00000,63.43278
778.00000,75.11814
780.00000,80.89452
782.00000,78.40843
784.00000,107.71941
786.00000,126.11987
788.00000,109.88743
790.00000,94.68824
792.00000,102.73055
794.00000,64.08672
796.00000,37.90618
798.00000,72.21928
800.00000,92.50180
802.00000,85.26919
804.00000,78.25282
806.00000,94.92623
808.00000,121.84010
810.00000,120.87861
812.00000,121.97054
814.00000,128.02173
816.00000,110.61822
818.00000,69.60428
820.00000,73.44005
822.00000,80.74009
824.00000,77.99812
826.00000,86.43100
828.00000,78.85462
830.00000,80.95970
832.00000,101.73372
834.00000,115.48461
836.00000,103.62544
838.00000,106.88042
840.00000,107.92629
842.00000,111.78111
844.00000,122.17061
846.00000,90.17741
848.00000,64.37750
850.00000,63.79140
852.00000,61.27602
854.00000,37.52040
856.00000,29.09671
858.00000,40.97171
860.00000,53.14636
862.00000,56.34612
864.00000,60.95558
866.00000,39.63083
868.00000,36.32197
870.00000,50.90680
872.00000,32.32890
874.00000,50.69097
876.00000,61.86596
878.00000,65.02126
880.00000,79.61067
882.00000,56.33400
884.00000,41.62430
886.00000,31.32819
888.00000,31.46939
890.00000,70.36319
892.00000,88.54508
894.00000,64.07649
896.00000,42.47191
898.00000,60.59231
900.00000,77.86598
902.00000,60.86596
904.00000,44.40570
906.00000,53.02512
908.00000,60.36444
910.00000,48.67400
912.00000,42.91524
914.00000,42.04486
916.00000,43.20697
918.00000,62.92147
920.00000,31.82615
922.00000,9.20594
924.00000,36.48001
926.00000,55.95274
928.00000,43.91208
930.00000,62.59340
932.00000,81.42308
934.00000,57.71854
936.00000,52.77885
938.00000,56.39596
940.00000,44.21838
942.00000,37.21365
944.00000,66.81881
946.00000,88.94630
948.00000,89.46442
950.00000,88.29380
952.00000,109.45986
954.00000,148.41792
956.00000,163.99770
958.00000,152.04776
960.00000,161.09543
962.00000,214.44646
964.00000,229.98387
966.00000,224.02238
968.00000,197.31313
970.00000,164.88686
972.00000,181.95291
974.00000,185.15369
976.00000,152.02386
978.00000,126.91306
980.00000,143.32118
982.00000,154.38986
984.00000,193.11302
986.00000,229.82466
988.00000,243.76411
990.00000,297.95166
992.00000,384.63269
994.00000,508.41080
996.00000,686.40570
998.00000,906.34271
1000.00000,1087.94214
1002.00000,1116.01184
1004.00000,974.38092
1006.00000,746.74231
1008.00000,538.00854
1010.00000,396.88043
1012.00000,318.00027
1014.00000,282.03845
1016.00000,272.99158
1018.00000,271.29544
1020.00000,264.24149
1022.00000,264.56137
1024.00000,293.08496
1026.00000,346.96075
1028.00000,390.20770
1030.00000,434.03577
1032.00000,432.84784
1034.00000,366.36804
1036.00000,357.67065
1038.00000,282.22415
1040.00000,220.08488
1042.00000,228.97169
1044.00000,172.13158
1046.00000,144.80373
1048.00000,146.91508
1050.00000,157.23738
1052.00000,175.37837
1054.00000,178.52702
1056.00000,193.03505
1058.00000,227.66277
1060.00000,259.14523
1062.00000,262.14899
1064.00000,247.63208
1066.00000,227.30161
1068.00000,196.01360
1070.00000,156.63490
1072.00000,139.16200
1074.00000,125.43933
1076.00000,137.55504
1078.00000,179.00508
1080.00000,217.95229
1082.00000,294.51526
1084.00000,349.11740
1086.00000,385.67010
1088.00000,400.79153
1090.00000,276.40784
1092.00000,199.09514
1094.00000,181.96344
1096.00000,168.44344
1098.00000,180.37508
1100.00000,169.24174
1102.00000,169.82355
1104.00000,207.73244
1106.00000,243.83617
1108.00000,230.84029
1110.00000,243.07237
1112.00000,248.14989
1114.00000,206.12834
1116.00000,164.52937
1118.00000,153.89037
1120.00000,156.51123
1122.00000,150.48920
1124.00000,134.29564
1126.00000,119.91738
1128.00000,109.97047
1130.00000,104.52432
1132.00000,100.64979
1134.00000,99.86317
1136.00000,117.62043
1138.00000,130.42105
1140.00000,129.77412
1142.00000,127.55509
1144.00000,127.50191
1146.00000,135.50699
1148.00000,165.26810
1150.00000,202.43852
1152.00000,229.86818
1154.00000,298.73080
1156.00000,366.88739
1158.00000,412.28735
1160.00000,420.37708
1162.00000,358.09030
1164.00000,343.41980
1166.00000,284.21634
1168.00000,188.07076
1170.00000,193.28745
1172.00000,152.21864
1174.00000,136.12758
1176.00000,148.92462
1178.00000,149.39444
1180.00000,193.48619
1182.00000,213.47617
1184.00000,201.48029
1186.00000,183.79692
1188.00000,170.03893
1190.00000,163.38148
1192.00000,144.22014
1194.00000,138.75630
1196.00000,166.39726
1198.00000,179.56085
1200.00000,165.34270
1202.00000,166.06165
1204.00000,178.52213
1206.00000,158.77596
1208.00000,135.35507
1210.00000,109.95621
1212.00000,98.61079
1214.00000,104.81200
1216.00000,103.70050
1218.00000,136.72194
1220.00000,178.45311
1222.00000,230.23611
1224.00000,328.84027
1226.00000,436.82993
1228.00000,548.59418
1230.00000,604.08673
1232.00000,561.81317
1234.00000,476.93015
1236.00000,385.03702
1238.00000,317.44418
1240.00000,299.75189
1242.00000,311.35532
1244.00000,273.25208
1246.00000,235.76384
1248.00000,205.45358
1250.00000,167.97289
1252.00000,152.75757
1254.00000,139.29440
1256.00000,143.11227
1258.00000,155.20181
1260.00000,154.56332
1262.00000,174.01909
1264.00000,154.96931
1266.00000,145.90381
1268.00000,192.20738
1270.00000,232.39438
1272.00000,305.26672
1274.00000,415.39301
1276.00000,546.99060
1278.00000,672.48834
1280.00000,736.05634
1282.00000,725.21198
1284.00000,696.11005
1286.00000,646.34814
1288.00000,513.65430
1290.00000,430.67926
1292.00000,365.05405
1294.00000,297.78534
1296.00000,264.37381
1298.00000,221.80312
1300.00000,197.92403
1302.00000,181.03403
1304.00000,160.20232
1306.00000,157.90924
1308.00000,139.59052
1310.00000,168.11516
1312.00000,188.78976
1314.00000,130.54947
1316.00000,142.40491
1318.00000,157.51764
1320.00000,131.61192
1322.00000,118.42285
1324.00000,156.07344
1326.00000,128.04959
1328.00000,141.57004
1330.00000,147.36951
1332.00000,75.99471
1334.00000,153.94006
1336.00000,110.25749
1338.00000,67.36030
1340.00000,145.30727
1342.00000,147.65025
1344.00000,198.36450
1346.00000,241.37036
1348.00000,320.97205
1350.00000,498.33627
1352.00000,602.20386
1354.00000,736.53766
1356.00000,889.16833
1358.00000,945.83563
1360.00000,863.10535
1362.00000,724.02673
1364.00000,612.68640
1366.00000,512.93652
1368.00000,415.23462
1370.00000,421.07599
1372.00000,454.69455
1374.00000,467.39279
1376.00000,446.38391
1378.00000,385.42120
1380.00000,325.72488
1382.00000,291.30243
1384.00000,305.42139
1386.00000,373.23105
1388.00000,451.29340
1390.00000,490.44876
1392.00000,498.06931
1394.00000,467.83722
1396.00000,376.75131
1398.00000,292.07483
1400.00000,222.11667
1402.00000,174.93933
1404.00000,161.41272
1406.00000,155.69221
1408.00000,134.23264
1410.00000,136.27515
1412.00000,144.72925
1414.00000,99.95536
1416.00000,85.46376
1418.00000,91.31793
1420.00000,83.72606
1422.00000,62.38193
1424.00000,49.01443
1426.00000,41.59695
1428.00000,41.39904
1430.00000,44.87003
1432.00000,55.99191
1434.00000,104.79614
1436.00000,115.39061
1438.00000,128.13835
1440.00000,192.15964
1442.00000,212.34991
1444.00000,241.56476
1446.00000,294.84625
1448.00000,340.78021
1450.00000,344.85089
1452.00000,299.63702
1454.00000,298.14163
1456.00000,300.25592
1458.00000,265.68320
1460.00000,290.64212
1462.00000,257.74683
1464.00000,238.73708
1466.00000,228.78003
1468.00000,134.92674
1470.00000,127.53622
1472.00000,159.72252
1474.00000,207.62610
1476.00000,290.84656
1478.00000,387.78372
1480.00000,533.95807
1482.00000,628.09320
1484.00000,634.74738
1486.00000,627.16895
1488.00000,589.17419
1490.00000,536.58875
1492.00000,486.13242
1494.00000,429.89911
1496.00000,360.47729
1498.00000,329.29874
1500.00000,287.22153
1502.00000,233.71101
1504.00000,229.33249
1506.00000,231.32600
1508.00000,204.41107
1510.00000,176.34383
1512.00000,168.82030
1514.00000,156.25819
1516.00000,167.57213
1518.00000,152.94922
1520.00000,130.77943
1522.00000,144.43832
1524.00000,94.21316
1526.00000,87.59797
1528.00000,99.77905
1530.00000,72.28206
1532.00000,74.36421
1534.00000,84.08377
1536.00000,68.31538
1538.00000,52.34514
1540.00000,85.64719
1542.00000,143.37318
1544.00000,146.51665
1546.00000,187.98177
1548.00000,307.74603
1550.00000,357.13562
1552.00000,373.93512
1554.00000,375.86102
1556.00000,330.94760
1558.00000,257.18903
1560.00000,266.47263
1562.00000,257.43033
1564.00000,274.08929
1566.00000,354.99753
1568.00000,410.54022
1570.00000,542.16217
1572.00000,690.92133
1574.00000,829.65588
1576.00000,993.96143
1578.00000,1117.16260
1580.00000,1132.40784
1582.00000,1080.82886
1584.00000,988.35522
1586.00000,825.03210
1588.00000,699.33063
1590.00000,600.51245
1592.00000,527.94482
1594.00000,504.66254
1596.00000,491.84616
1598.00000,537.64447
1600.00000,587.46545
1602.00000,595.57422
1604.00000,600.47968
1606.00000,557.05621
1608.00000,488.29202
1610.00000,422.24432
1612.00000,352.21289
1614.00000,278.34766
1616.00000,272.42438
1618.00000,267.94080
1620.00000,232.06337
1622.00000,237.87692
1624.00000,216.21304
1626.00000,227.19334
1628.00000,240.87247
1630.00000,198.89447
1632.00000,197.55669
1634.00000,181.65060
1636.00000,166.69106
1638.00000,181.14182
1640.00000,186.56049
1642.00000,161.97217
1644.00000,140.43663
1646.00000,141.32889
1648.00000,137.22516
1650.00000,100.49138
1652.00000,113.89965
1654.00000,124.84171
1656.00000,111.51376
1658.00000,151.35814
1660.00000,181.28897
1662.00000,138.74651
1664.00000,118.04557
1666.00000,170.18802
1668.00000,140.84067
1670.00000,165.53879
1672.00000,186.46291
1674.00000,152.79668
1676.00000,160.08984
1678.00000,185.32693
1680.00000,175.55235
1682.00000,151.83461
1684.00000,152.99733
1686.00000,149.82472
1688.00000,143.96880
1690.00000,141.08815
1692.00000,143.35735
1694.00000,137.69429
1696.00000,96.98988
1698.00000,108.34392
1700.00000,121.14404
1702.00000,92.76662
1704.00000,142.08296
1706.00000,106.67240
1708.00000,121.41351
1710.00000,188.56364
1712.00000,126.32327
1714.00000,143.72783
1716.00000,136.96638
1718.00000,120.86945
1720.00000,152.93040
1722.00000,124.80020
1724.00000,177.53757
1726.00000,183.24525
1728.00000,144.47453
1730.00000,209.58104
1732.00000,161.44298
1734.00000,150.78162
1736.00000,189.94778
1738.00000,170.41376
1740.00000,139.55656
1742.00000,154.60982
1744.00000,163.24968
1746.00000,136.51102
1748.00000,119.95934
1750.00000,130.83563
1752.00000,156.55118
1754.00000,153.78706
1756.00000,141.81207
1758.00000,183.53114
1760.00000,124.48373
1762.00000,105.56538
1764.00000,147.33427
1766.00000,103.44820
1768.00000,99.30190
1770.00000,98.53609
1772.00000,104.52187
1774.00000,139.32170
1776.00000,144.66855
1778.00000,98.11522
1780.00000,117.25173
1782.00000,159.69012
1784.00000,115.08035
1786.00000,154.97682
1788.00000,163.24931
1790.00000,131.36485
1792.00000,144.63887
1794.00000,178.95044
1796.00000,140.71584
1798.00000,108.38785
1800.00000,124.18599
1802.00000,131.01764
1804.00000,130.46690
1806.00000,156.98273
1808.00000,152.97107
1810.00000,141.42360
1812.00000,227.96646
1814.00000,178.45406
1816.00000,128.58707
1818.00000,154.70030
1820.00000,155.65967
1822.00000,172.81862
1824.00000,177.27313
1826.00000,161.77652
1828.00000,148.07042
1830.00000,154.33415
1832.00000,187.06726
1834.00000,147.95564
1836.00000,108.30943
1838.00000,166.52815
1840.00000,139.05370
1842.00000,138.68106
1844.00000,142.41002
1846.00000,110.64850
1848.00000,128.65915
1850.00000,113.64854
1852.00000,-9.14739
1854.00000,95.13480
1856.00000,434.63919
1858.00000,111.18420
1860.00000,-28.67040
1862.00000,-43.71076
1864.00000,52.97958
1866.00000,766.66095
1868.00000,786.21155
1870.00000,566.75134
1872.00000,500.46777
1874.00000,387.54999
1876.00000,435.25964
1878.00000,387.89804
1880.00000,325.26730
1882.00000,340.63370
1884.00000,260.09982
1886.00000,172.11320
1888.00000,172.13658
1890.00000,184.82881
1892.00000,132.77499
1894.00000,133.62897
1896.00000,119.51081
1898.00000,115.83614
1900.00000,125.74293
1902.00000,93.65305
1904.00000,138.91626
1906.00000,120.03003
1908.00000,94.83988
1910.00000,154.80849
1912.00000,83.55309
1914.00000,106.94198
1916.00000,114.78078
1918.00000,77.67436
1920.00000,174.46230
1922.00000,101.19675
1924.00000,95.18932
1926.00000,144.00194
1928.00000,92.90881
1930.00000,157.07405
1932.00000,157.51703
1934.00000,110.03374
1936.00000,128.89857
1938.00000,189.31276
1940.00000,175.49039
1942.00000,142.47928
1944.00000,153.54582
1946.00000,188.82687
1948.00000,191.55327
1950.00000,172.09393
1952.00000,166.39003
1954.00000,183.02487
1956.00000,188.03694
1958.00000,162.55077
1960.00000,235.14407
1962.00000,246.15700
1964.00000,109.73795
1966.00000,157.29411
1968.00000,169.82878
1970.00000,139.90791
1972.00000,148.72678
1974.00000,164.32291
1976.00000,173.73772
1978.00000,192.70650
1980.00000,177.21194
1982.00000,134.94516
1984.00000,168.34593
1986.00000,138.87277
1988.00000,130.90973
1990.00000,160.12947
1992.00000,122.47254
1994.00000,147.82037
1996.00000,111.84882
1998.00000,80.41950
2000.00000,72.91717
2002.00000,84.40652
2004.00000,97.51643
2006.00000,96.08236
2008.00000,98.98994
2010.00000,95.04749
2012.00000,94.59695
2014.00000,108.31298
2016.00000,124.50225
2018.00000,117.64857
2020.00000,95.02406
2022.00000,91.89092
2024.00000,112.88863
2026.00000,107.83695
2028.00000,76.91465
2030.00000,71.53492
2032.00000,100.04396
2034.00000,107.06184
2036.00000,75.44028
2038.00000,69.43992
2040.00000,95.32745
2042.00000,107.21593
2044.00000,102.90393
2046.00000,102.29704
2048.00000,106.76527
2050.00000,115.24104
2052.00000,121.47668
2054.00000,79.45668
2056.00000,73.70929
2058.00000,107.02405
2060.00000,94.22884
2062.00000,62.52082
2064.00000,94.24471
2066.00000,133.35922
2068.00000,117.58266
2070.00000,110.24664
2072.00000,106.08392
2074.00000,97.55432
2076.00000,90.65765
2078.00000,93.99844
2080.00000,103.41592
2082.00000,95.84787
2084.00000,78.24997
2086.00000,85.89482
2088.00000,129.66408
2090.00000,136.77081
2092.00000,109.27508
2094.00000,97.41665
2096.00000,121.54317
2098.00000,144.53310
2100.00000,134.04831
2102.00000,121.93954
2104.00000,125.30586
2106.00000,79.80724
2108.00000,107.77634
2110.00000,161.53235
2112.00000,148.78186
2114.00000,123.50977
2116.00000,135.98807
2118.00000,145.52507
2120.00000,131.63538
2122.00000,123.97237
2124.00000,118.90602
2126.00000,85.81697
2128.00000,69.79889
2130.00000,100.17786
2132.00000,105.24755
2134.00000,88.51353
2136.00000,88.68506
2138.00000,90.64964
2140.00000,57.99429
2142.00000,63.63408
2144.00000,94.02823
2146.00000,109.69206
2148.00000,102.27100
2150.00000,92.13204
2152.00000,78.06158
2154.00000,65.46023
2156.00000,66.63869
2158.00000,77.97507
2160.00000,62.37477
2162.00000,35.91429
2164.00000,41.78072
2166.00000,80.65727
2168.00000,82.09743
2170.00000,57.93007
2172.00000,58.18471
2174.00000,72.90025
2176.00000,45.32213
2178.00000,69.81851
2180.00000,104.99977
2182.00000,102.27488
2184.00000,90.85998
2186.00000,79.30055
2188.00000,43.03398
2190.00000,38.61063
2192.00000,80.96150
2194.00000,58.54493
2196.00000,79.08573
2198.00000,76.96289
2200.00000,38.66716
2202.00000,74.90247
2204.00000,57.42675
2206.00000,21.14343
2208.00000,29.12614
2210.00000,63.55118
2212.00000,63.59516
2214.00000,37.44955
2216.00000,30.41473
2218.00000,55.95395
2220.00000,68.19263
2222.00000,33.34106
2224.00000,37.90680
2226.00000,80.80010
2228.00000,71.94518
2230.00000,44.31138
2232.00000,52.77688
2234.00000,71.59588
2236.00000,70.74628
2238.00000,84.79350
2240.00000,74.60323
2242.00000,66.31752
2244.00000,65.52979
2246.00000,44.44504
2248.00000,60.35782
2250.00000,75.74150
2252.00000,53.20150
2254.00000,27.76192
2256.00000,62.85551
2258.00000,75.92006
2260.00000,70.91011
2262.00000,66.59683
2264.00000,32.14384
2266.00000,18.28384
2268.00000,41.63475
2270.00000,66.29003
2272.00000,61.51380
2274.00000,58.34005
2276.00000,55.39070
2278.00000,49.19294
2280.00000,48.07872
2282.00000,58.18943
2284.00000,59.82360
2286.00000,61.33800
2288.00000,64.50755
2290.00000,57.23186
2292.00000,47.14742
2294.00000,16.07474
2296.00000,28.39609
2298.00000,83.94859
2300.00000,33.46239
2302.00000,8.59146
2304.00000,25.02325
2306.00000,38.27436
2308.00000,49.59766
2310.00000,38.70047
2312.00000,44.45370
2314.00000,50.86235
2316.00000,33.07308
2318.00000,50.21773
2320.00000,26.42707
2322.00000,25.22379
2324.00000,66.46998
2326.00000,31.13450
2328.00000,30.50448
2330.00000,68.69353
2332.00000,85.08694
2334.00000,64.28412
2336.00000,58.25504
2338.00000,54.71935
2340.00000,51.91412
2342.00000,61.24517
2344.00000,71.69159
2346.00000,65.67014
2348.00000,69.53072
2350.00000,63.94694
2352.00000,19.42522
2354.00000,41.63377
2356.00000,46.98833
2358.00000,37.28811
2360.00000,58.84401
2362.00000,36.64596
2364.00000,54.49889
2366.00000,74.59521
2368.00000,57.47658
2370.00000,62.27539
2372.00000,66.45267
2374.00000,52.35582
2376.00000,55.63628
2378.00000,77.47330
2380.00000,22.10151
2382.00000,34.55671
2384.00000,64.31287
2386.00000,34.59529
2388.00000,56.06491
2390.00000,88.78239
2392.00000,105.75015
2394.00000,95.40428
2396.00000,61.70116
2398.00000,54.85624
2400.00000,67.72836
2402.00000,51.91392
2404.00000,27.17740
2406.00000,76.60371
2408.00000,39.83862
2410.00000,23.16743
2412.00000,90.05629
2414.00000,96.18044
2416.00000,77.05388
2418.00000,89.88135
2420.00000,81.14745
2422.00000,30.53677
2424.00000,84.77618
2426.00000,98.95213
2428.00000,60.97203
2430.00000,57.18132
2432.00000,92.29649
2434.00000,107.89919
2436.00000,64.23193
2438.00000,38.17895
2440.00000,88.69890
2442.00000,66.18029
2444.00000,55.74326
2446.00000,86.70504
2448.00000,87.81148
2450.00000,39.70182
2452.00000,62.93044
2454.00000,82.43507
2456.00000,53.95956
2458.00000,65.58265
2460.00000,100.14973
2462.00000,69.98831
2464.00000,32.33200
2466.00000,55.77687
2468.00000,36.65710
2470.00000,47.63480
2472.00000,72.23570
2474.00000,74.94624
2476.00000,76.45670
2478.00000,37.17020
2480.00000,26.80260
2482.00000,51.92597
2484.00000,48.58113
2486.00000,36.70477
2488.00000,68.52800
2490.00000,65.42301
2492.00000,10.83036
2494.00000,34.76202
2496.00000,33.15012
2498.00000,50.03705
2500.00000,84.54884
2502.00000,56.25246
2504.00000,42.94494
2506.00000,79.69972
2508.00000,99.80942
2510.00000,65.42981
2512.00000,57.68584
2514.00000,56.55800
2516.00000,58.97633
2518.00000,64.20683
2520.00000,49.17244
2522.00000,14.81949
2524.00000,29.02295
2526.00000,74.78613
2528.00000,71.40524
2530.00000,28.91199
2532.00000,66.11639
2534.00000,92.44895
2536.00000,48.76686
2538.00000,58.04160
2540.00000,56.87442
2542.00000,57.46084
2544.00000,81.23273
2546.00000,110.49931
2548.00000,129.13127
2550.00000,91.87756
2552.00000,67.13506
2554.00000,85.28644
2556.00000,48.92189
2558.00000,72.07584
2560.00000,84.34277
2562.00000,56.57359
2564.00000,71.15186
2566.00000,53.94381
2568.00000,52.66532
2570.00000,70.52859
2572.00000,71.94682
2574.00000,82.43523
2576.00000,74.08869
2578.00000,52.27580
2580.00000,42.99882
2582.00000,50.73226
2584.00000,55.39165
2586.00000,64.72836
2588.00000,46.66479
2590.00000,6.02620
2592.00000,61.94387
2594.00000,79.18481
2596.00000,51.52579
2598.00000,65.60475
2600.00000,107.70729
2602.00000,93.50282
2604.00000,89.68005
2606.00000,106.21507
2608.00000,72.35079
2610.00000,53.17542
2612.00000,65.33536
2614.00000,68.62856
2616.00000,46.58994
2618.00000,46.81409
2620.00000,56.94551
2622.00000,50.15462
2624.00000,51.02148
2626.00000,79.16777
2628.00000,27.30264
2630.00000,35.14231
2632.00000,80.28270
2634.00000,52.49354
2636.00000,75.04915
2638.00000,103.01624
2640.00000,88.98703
2642.00000,56.59592
2644.00000,63.54996
2646.00000,104.23180
2648.00000,77.07671
2650.00000,51.03265
2652.00000,117.55866
2654.00000,62.11413
2656.00000,53.72469
2658.00000,85.88110
2660.00000,68.75948
2662.00000,80.51485
2664.00000,44.91566
2666.00000,31.91011
2668.00000,67.53156
2670.00000,70.96392
2672.00000,72.31454
2674.00000,52.73134
2676.00000,44.24356
2678.00000,72.35896
2680.00000,67.23884
2682.00000,52.54729
2684.00000,62.13432
2686.00000,74.80622
2688.00000,57.95395
2690.00000,83.21822
2692.00000,85.43713
2694.00000,76.58118
2696.00000,112.58442
2698.00000,106.13798
2700.00000,111.82509
2702.00000,119.87896
2704.00000,101.70963
2706.00000,94.06107
2708.00000,82.48645
2710.00000,62.85119
2712.00000,57.74737
2714.00000,74.34736
2716.00000,61.53984
2718.00000,42.02317
2720.00000,55.41113
2722.00000,75.88876
2724.00000,36.33166
2726.00000,41.26628
2728.00000,77.28304
2730.00000,78.41167
2732.00000,57.64642
2734.00000,94.67258
2736.00000,121.79478
2738.00000,100.01749
2740.00000,81.77782
2742.00000,107.07929
2744.00000,84.98894
2746.00000,85.11882
2748.00000,123.20732
2750.00000,84.06422
2752.00000,130.28928
2754.00000,134.35736
2756.00000,86.50700
2758.00000,113.64519
2760.00000,97.56319
2762.00000,90.48269
2764.00000,103.23158
2766.00000,109.06796
2768.00000,123.31464
2770.00000,109.15961
2772.00000,98.11217
2774.00000,114.46922
2776.00000,131.34534
2778.00000,135.03429
2780.00000,138.14117
2782.00000,147.42964
2784.00000,149.56548
2786.00000,134.19774
2788.00000,147.87726
2790.00000,139.37213
2792.00000,117.52045
2794.00000,165.28865
2796.00000,155.22266
2798.00000,113.47039
2800.00000,134.06334
2802.00000,189.51239
2804.00000,119.46440
2806.00000,109.61436
2808.00000,142.23015
2810.00000,111.45141
2812.00000,80.33744
2814.00000,90.21322
2816.00000,111.66238
2818.00000,94.52797
2820.00000,63.80824
2822.00000,130.61111
2824.00000,115.92467
2826.00000,82.75222
2828.00000,133.54366
2830.00000,89.53530
2832.00000,60.35981
2834.00000,101.12865
2836.00000,122.50707
2838.00000,67.87892
2840.00000,127.23806
2842.00000,164.72920
2844.00000,134.52905
2846.00000,146.35033
2848.00000,202.87770
2850.00000,228.15089
2852.00000,200.99765
2854.00000,204.75639
2856.00000,291.44873
2858.00000,242.83318
2860.00000,194.69759
2862.00000,227.02180
2864.00000,233.21857
2866.00000,213.48660
2868.00000,197.29414
2870.00000,136.02092
2872.00000,91.03925
2874.00000,237.13354
2876.00000,291.21112
2878.00000,156.29176
2880.00000,-22.97463
2882.00000,-21.57973
2884.00000,287.55215
2886.00000,732.32025
2888.00000,941.35089
2890.00000,814.22412
2892.00000,714.44073
2894.00000,536.29309
2896.00000,560.12140
2898.00000,698.58270
2900.00000,472.64542
2902.00000,496.23230
2904.00000,514.18176
2906.00000,390.60239
2908.00000,358.75183
2910.00000,358.79565
2912.00000,359.10312
2914.00000,273.86737
2916.00000,193.22377
2918.00000,323.76913
2920.00000,297.32562
2922.00000,202.68399
2924.00000,234.85306
2926.00000,319.26465
2928.00000,262.53595
2930.00000,280.32550
2932.00000,352.42279
2934.00000,340.49228
2936.00000,356.91547
2938.00000,413.23032
2940.00000,389.04724
2942.00000,326.77649
2944.00000,362.79965
2946.00000,291.81152
2948.00000,324.97330
2950.00000,381.72116
2952.00000,302.46042
2954.00000,385.65729
2956.00000,352.53857
2958.00000,291.64136
2960.00000,337.00208
2962.00000,326.75784
2964.00000,348.28647
2966.00000,338.81198
2968.00000,316.89499
2970.00000,347.95135
2972.00000,302.58023
2974.00000,305.32019
2976.00000,303.95236
2978.00000,236.32974
2980.00000,247.64212
2982.00000,276.20987
2984.00000,258.71725
2986.00000,239.89142
2988.00000,262.49408
2990.00000,198.83598
2992.00000,193.65576
2994.00000,208.01558
2996.00000,160.29973
2998.00000,214.20782
3000.00000,224.54124
3002.00000,213.32910
3004.00000,220.18073
3006.00000,189.01543
3008.00000,214.03305
3010.00000,194.96646
3012.00000,132.86531
3014.00000,123.35495
3016.00000,109.80296
3018.00000,81.97083
3020.00000,141.28238
3022.00000,203.51968
3024.00000,67.56251
3026.00000,156.73936
3028.00000,175.80913
3030.00000,97.42829
3032.00000,235.78435
3034.00000,219.44487
3036.00000,181.78479
3038.00000,192.46414
3040.00000,214.89221
3042.00000,295.29279
3044.00000,258.49411
3046.00000,279.43741
3048.00000,428.95218
3050.00000,497.32303
3052.00000,528.04865
3054.00000,582.09875
3056.00000,675.60028
3058.00000,721.56470
3060.00000,619.53400
3062.00000,712.84229
3064.00000,740.72986
3066.00000,572.46332
3068.00000,592.87799
3070.00000,514.61615
3072.00000,461.75519
3074.00000,461.84570
3076.00000,401.02258
3078.00000,453.83969
3080.00000,348.35669
3082.00000,304.41412
3084.00000,450.23981
3086.00000,333.41754
3088.00000,267.13950
3090.00000,339.18951
3092.00000,368.93210
3094.00000,282.98575
3096.00000,335.78116
3098.00000,341.79623
3100.00000,317.24973
3102.00000,363.12424
3104.00000,294.85864
3106.00000,252.64932
3108.00000,288.51126
3110.00000,325.22528
3112.00000,279.51605
3114.00000,168.34566
3116.00000,207.00653
3118.00000,302.16281
3120.00000,245.41618
3122.00000,232.40755
3124.00000,253.70065
3126.00000,220.18779
3128.00000,168.78258
3130.00000,228.51228
3132.00000,264.79834
3134.00000,234.58281
3136.00000,200.87457
3138.00000,200.93744
3140.00000,177.99265
3142.00000,274.62640
3144.00000,310.79398
3146.00000,184.92850
3148.00000,237.05661
3150.00000,280.20963
3152.00000,286.41980
3154.00000,286.66516
3156.00000,247.06039
3158.00000,247.81595
3160.00000,270.00696
3162.00000,299.62231
3164.00000,326.52878
3166.00000,295.44485
3168.00000,259.81039
3170.00000,282.25122
3172.00000,294.96344
3174.00000,211.24422
3176.00000,269.14929
3178.00000,279.00003
3180.00000,251.55600
3182.00000,369.12759
3184.00000,375.03958
3186.00000,206.40640
3188.00000,176.62802
3190.00000,339.25043
3192.00000,278.53793
3194.00000,287.02856
3196.00000,300.18341
3198.00000,261.14441
3200.00000,302.66324
