300.00000,82.62415
302.00000,64.95236
304.00000,63.09523
306.00000,64.23248
308.00000,62.76178
310.00000,72.96803
312.00000,98.77358
314.00000,86.30153
316.00000,72.35048
318.00000,76.91425
320.00000,78.97097
322.00000,75.24539
324.00000,86.31736
326.00000,133.87387
328.00000,150.76315
330.00000,78.26442
332.00000,99.93066
334.00000,159.35225
336.00000,210.68013
338.00000,280.24030
340.00000,355.59369
342.00000,438.56552
344.00000,507.08539
346.00000,537.52881
348.00000,520.53406
350.00000,449.74854
352.00000,370.53253
354.00000,283.39944
356.00000,190.34612
358.00000,157.50294
360.00000,162.54549
362.00000,176.44817
364.00000,169.92451
366.00000,130.79120
368.00000,103.54342
370.00000,79.74220
372.00000,69.33382
374.00000,75.49039
376.00000,66.04143
378.00000,97.36515
380.00000,139.72466
382.00000,156.76665
384.00000,164.09108
386.00000,169.66986
388.00000,197.08424
390.00000,236.04878
392.00000,237.02722
394.00000,176.49016
396.00000,156.43971
398.00000,169.15440
400.00000,172.45435
402.00000,176.66318
404.00000,211.47250
406.00000,263.14249
408.00000,296.49637
410.00000,314.41119
412.00000,369.44843
414.00000,461.60614
416.00000,582.37732
418.00000,694.16364
420.00000,776.18030
422.00000,908.42175
424.00000,1113.53223
426.00000,1317.75977
428.00000,1469.05334
430.00000,1610.92883
432.00000,1735.48083
434.00000,1846.27417
436.00000,1952.90027
438.00000,2051.79297
440.00000,2130.27783
442.00000,2202.58862
444.00000,2250.25659
446.00000,2242.19287
448.00000,2182.43066
450.00000,2100.26636
452.00000,1973.68823
454.00000,1820.26538
456.00000,1683.17346
458.00000,1527.08618
460.00000,1359.60376
462.00000,1195.41565
464.00000,1036.61096
466.00000,879.82153
468.00000,729.58563
470.00000,586.72034
472.00000,467.27997
474.00000,376.82559
476.00000,278.96259
478.00000,207.31645
480.00000,165.62166
482.00000,127.11433
484.00000,84.92005
486.00000,65.72921
488.00000,69.25545
490.00000,80.74094
492.00000,84.06011
494.00000,67.01625
496.00000,52.94376
498.00000,46.95555
500.00000,56.55962
502.00000,89.20663
504.00000,81.87933
506.00000,74.80959
508.00000,80.09894
510.00000,77.04163
512.00000,107.76081
514.00000,132.07477
516.00000,153.38004
518.00000,200.25943
520.00000,269.24252
522.00000,339.31903
524.00000,385.53317
526.00000,399.99850
528.00000,390.05621
530.00000,357.10361
532.00000,287.69931
534.00000,213.12192
536.00000,152.97289
538.00000,95.42522
540.00000,80.16239
542.00000,63.73473
544.00000,49.62891
546.00000,57.46585
548.00000,32.98458
550.00000,67.06400
552.00000,90.74062
554.00000,82.07774
556.00000,144.65112
558.00000,163.17093
560.00000,178.53743
562.00000,236.65622
564.00000,307.23004
566.00000,360.63269
568.00000,439.33765
570.00000,518.79791
572.00000,555.57361
574.00000,547.31067
576.00000,503.32458
578.00000,486.51337
580.00000,518.25061
582.00000,574.47235
584.00000,642.67480
586.00000,706.96527
588.00000,782.16272
590.00000,877.86432
592.00000,973.17206
594.00000,1050.99194
596.00000,1144.72656
598.00000,1268.41455
600.00000,1403.19568
602.00000,1526.83691
604.00000,1615.24756
606.00000,1695.43250
608.00000,1768.32495
610.00000,1803.03516
612.00000,1843.29688
614.00000,1885.42078
616.00000,1884.09155
618.00000,1801.00647
620.00000,1643.56299
622.00000,1446.69580
624.00000,1215.47034
626.00000,971.51306
628.00000,771.96564
630.00000,644.92944
632.00000,537.91956
634.00000,432.40689
636.00000,343.78659
638.00000,267.96097
640.00000,215.89436
642.00000,177.55045
644.00000,148.40453
646.00000,136.25749
648.00000,127.68208
650.00000,109.60569
652.00000,87.55035
654.00000,74.11614
656.00000,74.21336
658.00000,97.64069
660.00000,128.79149
662.00000,136.80653
664.00000,123.29193
666.00000,150.53236
668.00000,191.20044
670.00000,233.30679
672.00000,295.95349
674.00000,385.18143
676.00000,490.04431
678.00000,556.94940
680.00000,539.75549
682.00000,452.10803
684.00000,364.03693
686.00000,282.26962
688.00000,195.44551
690.00000,112.52554
692.00000,62.86717
694.00000,57.05325
696.00000,55.74393
698.00000,57.77835
700.00000,81.10430
702.00000,70.00547
704.00000,77.50544
706.00000,100.93307
708.00000,123.22544
710.00000,175.08995
712.00000,197.56805
714.00000,216.26648
716.00000,246.91464
718.00000,272.74054
720.00000,322.83847
722.00000,353.04352
724.00000,358.63275
726.00000,365.36523
728.00000,368.08722
730.00000,335.74326
732.00000,269.23300
734.00000,215.00188
736.00000,210.68280
738.00000,224.76077
740.00000,258.16589
742.00000,320.01297
744.00000,377.13138
746.00000,369.46124
748.00000,320.90567
750.00000,246.05292
752.00000,158.70079
754.00000,91.37277
756.00000,77.85241
758.00000,87.20306
760.00000,96.59851
762.00000,96.48745
764.00000,84.69608
766.00000,90.99884
768.00000,71.65031
770.00000,39.08303
772.00000,48.69538
774.00000,72.28795
776.00000,91.77414
778.00000,90.55378
780.00000,87.66168
782.00000,119.41604
784.00000,133.18066
786.00000,142.37912
788.00000,144.56003
790.00000,115.78807
792.00000,92.85788
794.00000,139.59390
796.00000,146.63266
798.00000,96.45281
800.00000,135.55908
802.00000,146.29596
804.00000,172.99806
806.00000,227.95241
808.00000,256.95071
810.00000,280.33212
812.00000,290.04410
814.00000,272.73233
816.00000,228.52461
818.00000,171.72662
820.00000,120.27544
822.00000,97.36739
824.00000,104.68319
826.00000,118.16122
828.00000,115.27249
830.00000,117.23409
832.00000,136.29062
834.00000,155.24956
836.00000,151.21179
838.00000,142.07448
840.00000,144.07172
842.00000,145.35269
844.00000,136.98296
846.00000,138.59642
848.00000,121.38332
850.00000,120.29283
852.00000,142.14896
854.00000,141.23320
856.00000,153.61702
858.00000,144.91144
860.00000,126.79536
862.00000,131.01077
864.00000,126.09514
866.00000,138.01208
868.00000,131.42978
870.00000,102.70351
872.00000,101.52976
874.00000,93.02878
876.00000,84.77106
878.00000,87.57080
880.00000,93.92235
882.00000,92.74287
884.00000,82.12402
886.00000,75.52043
888.00000,90.98305
890.00000,120.18663
892.00000,114.06344
894.00000,112.67285
896.00000,100.76908
898.00000,62.81373
900.00000,75.33729
902.00000,116.07874
904.00000,128.19301
906.00000,121.57686
908.00000,137.53015
910.00000,117.07782
912.00000,92.13255
914.00000,87.83115
916.00000,87.48163
918.00000,75.53526
920.00000,74.76902
922.00000,75.37402
924.00000,60.35448
926.00000,43.24885
928.00000,60.42056
930.00000,91.55698
932.00000,99.45229
934.00000,77.63267
936.00000,61.68638
938.00000,78.19476
940.00000,107.53094
942.00000,112.01071
944.00000,94.50455
946.00000,120.75891
948.00000,160.42752
950.00000,172.04628
952.00000,173.74454
954.00000,217.93510
956.00000,266.33456
958.00000,322.85132
960.00000,390.15753
962.00000,445.51025
964.00000,487.33206
966.00000,518.55035
968.00000,497.75430
970.00000,435.46082
972.00000,415.66440
974.00000,365.86914
976.00000,304.99844
978.00000,265.43167
980.00000,238.95428
982.00000,231.86476
984.00000,231.11330
986.00000,248.09802
988.00000,298.54742
990.00000,372.58514
992.00000,465.89993
994.00000,613.67358
996.00000,868.37238
998.00000,1203.13904
1000.00000,1432.90869
1002.00000,1412.51404
1004.00000,1168.01160
1006.00000,825.01709
1008.00000,495.33929
1010.00000,261.73459
1012.00000,143.76549
1014.00000,96.63154
1016.00000,73.33888
1018.00000,88.70766
1020.00000,120.77790
1022.00000,156.28046
1024.00000,210.75305
1026.00000,299.67273
1028.00000,385.52957
1030.00000,461.39111
1032.00000,508.80292
1034.00000,494.59161
1036.00000,427.27921
1038.00000,373.05124
1040.00000,319.44952
1042.00000,267.37338
1044.00000,273.39520
1046.00000,273.40503
1048.00000,275.50888
1050.00000,295.25977
1052.00000,328.10233
1054.00000,389.10556
1056.00000,474.96173
1058.00000,567.28632
1060.00000,641.29626
1062.00000,667.52319
1064.00000,617.67517
1066.00000,543.80786
1068.00000,480.33557
1070.00000,424.21729
1072.00000,385.37552
1074.00000,353.76666
1076.00000,337.23254
1078.00000,341.92557
1080.00000,383.89566
1082.00000,531.94763
1084.00000,646.42877
1086.00000,673.33783
1088.00000,625.69727
1090.00000,430.19299
1092.00000,307.95074
1094.00000,248.06187
1096.00000,185.58348
1098.00000,188.65126
1100.00000,227.44749
1102.00000,292.36337
1104.00000,372.65259
1106.00000,442.38419
1108.00000,469.93936
1110.00000,415.52444
1112.00000,340.71603
1114.00000,286.39102
1116.00000,223.61266
1118.00000,190.33212
1120.00000,157.97557
1122.00000,115.30064
1124.00000,82.77048
1126.00000,63.49184
1128.00000,54.68421
1130.00000,58.11280
1132.00000,68.14769
1134.00000,76.94448
1136.00000,97.79975
1138.00000,114.81924
1140.00000,140.99652
1142.00000,194.76895
1144.00000,242.62358
1146.00000,250.45816
1148.00000,297.33557
1150.00000,416.66077
1152.00000,548.45905
1154.00000,705.96320
1156.00000,859.60132
1158.00000,986.74457
1160.00000,1061.20215
1162.00000,1028.27844
1164.00000,894.13879
1166.00000,745.61182
1168.00000,631.54266
1170.00000,527.48865
1172.00000,443.62704
1174.00000,438.35602
1176.00000,459.37805
1178.00000,453.73312
1180.00000,492.69418
1182.00000,525.64764
1184.00000,495.94397
1186.00000,437.19226
1188.00000,421.23514
1190.00000,414.03882
1192.00000,400.76141
1194.00000,398.95847
1196.00000,422.98874
1198.00000,451.64166
1200.00000,450.67709
1202.00000,469.23090
1204.00000,487.57376
1206.00000,433.60291
1208.00000,378.18799
1210.00000,306.67218
1212.00000,222.82552
1214.00000,182.50977
1216.00000,223.38145
1218.00000,279.23755
1220.00000,401.35385
1222.00000,597.41461
1224.00000,824.25366
1226.00000,1145.95691
1228.00000,1386.94031
1230.00000,1435.08105
1232.00000,1308.16370
1234.00000,1071.43054
1236.00000,840.09674
1238.00000,728.85254
1240.00000,700.02795
1242.00000,644.96759
1244.00000,603.24829
1246.00000,498.33582
1248.00000,382.64526
1250.00000,315.64545
1252.00000,249.04967
1254.00000,297.79575
1256.00000,329.09775
1258.00000,328.23096
1260.00000,393.36673
1262.00000,374.97006
1264.00000,369.40570
1266.00000,395.36420
1268.00000,444.60687
1270.00000,598.21265
1272.00000,824.10004
1274.00000,1079.57117
1276.00000,1347.88928
1278.00000,1607.73108
1280.00000,1780.50171
1282.00000,1758.76538
1284.00000,1585.47034
1286.00000,1348.76514
1288.00000,1071.68408
1290.00000,827.65948
1292.00000,634.64832
1294.00000,492.68466
1296.00000,397.70740
1298.00000,318.62085
1300.00000,249.80510
1302.00000,228.65431
1304.00000,239.78322
1306.00000,224.09636
1308.00000,270.83463
1310.00000,310.68198
1312.00000,342.98163
1314.00000,407.15726
1316.00000,394.82504
1318.00000,409.33609
1320.00000,439.62241
1322.00000,445.54453
1324.00000,479.87833
1326.00000,529.40271
1328.00000,569.11090
1330.00000,600.79620
1332.00000,623.53210
1334.00000,601.60217
1336.00000,566.10388
1338.00000,559.28680
1340.00000,622.82990
1342.00000,749.64539
1344.00000,823.38672
1346.00000,1005.44098
1348.00000,1282.70142
1350.00000,1549.09082
1352.00000,1955.68713
1354.00000,2386.23364
1356.00000,2685.30933
1358.00000,2773.09741
1360.00000,2625.31299
1362.00000,2245.71533
1364.00000,1924.92773
1366.00000,1690.16675
1368.00000,1472.68433
1370.00000,1506.24829
1372.00000,1564.14624
1374.00000,1571.12854
1376.00000,1540.62793
1378.00000,1420.79492
1380.00000,1262.13965
1382.00000,1202.53589
1384.00000,1176.37671
1386.00000,1162.64929
1388.00000,1388.25989
1390.00000,1443.93323
1392.00000,1383.86890
1394.00000,1284.82434
1396.00000,960.01819
1398.00000,608.53491
1400.00000,409.52066
1402.00000,300.52780
1404.00000,181.26337
1406.00000,135.62167
1408.00000,84.33721
1410.00000,43.60825
1412.00000,34.15070
1414.00000,22.06465
1416.00000,43.73945
1418.00000,58.37740
1420.00000,35.25218
1422.00000,3.00768
1424.00000,7.89946
1426.00000,17.85579
1428.00000,50.63206
1430.00000,119.56216
1432.00000,189.74013
1434.00000,239.86916
1436.00000,314.46262
1438.00000,400.26270
1440.00000,482.80093
1442.00000,629.63385
1444.00000,826.65472
1446.00000,971.67670
1448.00000,1042.49915
1450.00000,1112.16260
1452.00000,1167.18298
1454.00000,1166.94849
1456.00000,1189.56824
1458.00000,1271.07727
1460.00000,1275.64587
1462.00000,1230.57849
1464.00000,1195.66614
1466.00000,1122.96069
1468.00000,993.97168
1470.00000,1035.22583
1472.00000,1064.58545
1474.00000,1119.72644
1476.00000,1331.64929
1478.00000,1569.93286
1480.00000,1795.88855
1482.00000,1931.46191
1484.00000,1934.55078
1486.00000,1838.54614
1488.00000,1682.03650
1490.00000,1504.87329
1492.00000,1305.53687
1494.00000,1086.78625
1496.00000,891.95880
1498.00000,720.74438
1500.00000,543.49561
1502.00000,427.01157
1504.00000,391.79672
1506.00000,215.19803
1508.00000,138.00679
1510.00000,152.60179
1512.00000,105.60570
1514.00000,52.25655
1516.00000,19.98806
1518.00000,49.91093
1520.00000,71.16675
1522.00000,38.65453
1524.00000,141.68254
1526.00000,178.55266
1528.00000,183.83759
1530.00000,229.01004
1532.00000,195.69920
1534.00000,308.79037
1536.00000,367.43793
1538.00000,347.60568
1540.00000,455.72293
1542.00000,569.86322
1544.00000,737.26672
1546.00000,944.17657
1548.00000,1116.71167
1550.00000,1247.70410
1552.00000,1391.27869
1554.00000,1395.71375
1556.00000,1326.18567
1558.00000,1341.16333
1560.00000,1263.51355
1562.00000,1307.29907
1564.00000,1403.61682
1566.00000,1474.18677
1568.00000,1698.24609
1570.00000,1961.09814
1572.00000,2256.23535
1574.00000,2655.24902
1576.00000,3076.73291
1578.00000,3233.08105
1580.00000,3253.00562
1582.00000,3036.23486
1584.00000,2578.58350
1586.00000,2194.97974
1588.00000,1856.43030
1590.00000,1505.51550
1592.00000,1284.71448
1594.00000,1252.72498
1596.00000,1110.61438
1598.00000,1067.30774
1600.00000,1123.33826
1602.00000,1117.35059
1604.00000,1023.51202
1606.00000,928.56769
1608.00000,800.86444
1610.00000,619.56036
1612.00000,446.43420
1614.00000,353.06827
1616.00000,290.78961
1618.00000,217.71399
1620.00000,160.32558
1622.00000,150.60457
1624.00000,115.22103
1626.00000,160.80896
1628.00000,153.38905
1630.00000,22.77911
1632.00000,129.31598
1634.00000,80.22649
1636.00000,9.23577
1638.00000,82.20833
1640.00000,71.37889
1642.00000,55.80339
1644.00000,83.72839
1646.00000,98.45663
1648.00000,73.59464
1650.00000,100.96706
1652.00000,118.58657
1654.00000,125.88747
1656.00000,114.86454
1658.00000,74.61707
1660.00000,140.73384
1662.00000,102.89202
1664.00000,29.57000
1666.00000,106.64996
1668.00000,141.91425
1670.00000,76.14845
1672.00000,78.77035
1674.00000,124.50536
1676.00000,34.15411
1678.00000,71.21125
1680.00000,154.63701
1682.00000,163.43294
1684.00000,104.14275
1686.00000,46.25975
1688.00000,83.65699
1690.00000,139.14110
1692.00000,131.39337
1694.00000,89.66922
1696.00000,54.48639
1698.00000,81.20957
1700.00000,105.94120
1702.00000,76.17319
1704.00000,74.31744
1706.00000,36.11427
1708.00000,62.02589
1710.00000,119.43636
1712.00000,83.95216
1714.00000,176.84839
1716.00000,172.57071
1718.00000,141.66302
1720.00000,229.89275
1722.00000,209.37100
1724.00000,180.34018
1726.00000,158.95035
1728.00000,168.26164
1730.00000,233.60909
1732.00000,194.27007
1734.00000,161.78548
1736.00000,171.52261
1738.00000,170.88971
1740.00000,166.26878
1742.00000,117.14276
1744.00000,89.81406
1746.00000,126.47668
1748.00000,172.54944
1750.00000,175.70753
1752.00000,161.38846
1754.00000,153.64772
1756.00000,136.89267
1758.00000,106.30786
1760.00000,161.81340
1762.00000,170.93330
1764.00000,102.67918
1766.00000,93.96615
1768.00000,117.64816
1770.00000,117.10755
1772.00000,106.42091
1774.00000,111.27699
1776.00000,106.59870
1778.00000,102.02978
1780.00000,137.82396
1782.00000,179.22961
1784.00000,153.67087
1786.00000,114.21204
1788.00000,186.74776
1790.00000,210.39590
1792.00000,135.31459
1794.00000,205.20549
1796.00000,161.56818
1798.00000,147.44321
1800.00000,212.81264
1802.00000,191.34148
1804.00000,158.07591
1806.00000,160.45802
1808.00000,139.05634
1810.00000,124.20389
1812.00000,210.51178
1814.00000,115.46053
1816.00000,94.29134
1818.00000,215.75044
1820.00000,226.32047
1822.00000,164.37057
1824.00000,136.49167
1826.00000,107.50869
1828.00000,82.53027
1830.00000,148.33820
1832.00000,101.20493
1834.00000,51.84061
1836.00000,81.70725
1838.00000,105.47350
1840.00000,96.47023
1842.00000,105.29787
1844.00000,108.80832
1846.00000,96.12914
1848.00000,119.02702
1850.00000,134.34454
1852.00000,167.04816
1854.00000,190.92546
1856.00000,178.84244
1858.00000,200.10994
1860.00000,91.85314
1862.00000,59.02874
1864.00000,162.80840
1866.00000,121.02518
1868.00000,187.41399
1870.00000,248.11111
1872.00000,170.46481
1874.00000,78.26581
1876.00000,164.97774
1878.00000,210.75368
1880.00000,196.64253
1882.00000,212.53578
1884.00000,218.58681
1886.00000,157.25987
1888.00000,147.65651
1890.00000,201.14229
1892.00000,200.01758
1894.00000,140.53514
1896.00000,213.14619
1898.00000,207.72075
1900.00000,97.15993
1902.00000,171.35870
1904.00000,130.04146
1906.00000,149.45088
1908.00000,197.96767
1910.00000,137.38185
1912.00000,200.17348
1914.00000,170.34424
1916.00000,138.79485
1918.00000,163.60191
1920.00000,100.58114
1922.00000,142.36694
1924.00000,162.92271
1926.00000,139.67250
1928.00000,126.20523
1930.00000,37.35433
1932.00000,116.15432
1934.00000,141.39325
1936.00000,74.29250
1938.00000,204.48143
1940.00000,220.75955
1942.00000,218.46634
1944.00000,275.15219
1946.00000,296.46588
1948.00000,236.22249
1950.00000,203.97624
1952.00000,212.36627
1954.00000,226.80469
1956.00000,247.84361
1958.00000,265.57492
1960.00000,186.18352
1962.00000,128.01448
1964.00000,171.28479
1966.00000,117.22410
1968.00000,133.54022
1970.00000,234.23497
1972.00000,249.58809
1974.00000,122.65447
1976.00000,132.14061
1978.00000,194.93930
1980.00000,143.37003
1982.00000,51.34375
1984.00000,133.92021
1986.00000,76.00131
1988.00000,80.68610
1990.00000,146.46681
1992.00000,16.52593
1994.00000,112.19498
1996.00000,133.02937
1998.00000,100.02584
2000.00000,37.05252
2002.00000,17.88213
2004.00000,24.85656
2006.00000,55.75549
2008.00000,57.16545
2010.00000,29.48268
2012.00000,17.49733
2014.00000,34.13809
2016.00000,48.33780
2018.00000,45.48746
2020.00000,46.66638
2022.00000,53.32500
2024.00000,57.63079
2026.00000,68.73312
2028.00000,78.24514
2030.00000,67.14724
2032.00000,56.97951
2034.00000,78.31882
2036.00000,72.46696
2038.00000,63.75641
2040.00000,61.70022
2042.00000,47.56386
2044.00000,33.75464
2046.00000,38.64759
2048.00000,43.21273
2050.00000,32.38074
2052.00000,27.10852
2054.00000,40.77334
2056.00000,30.02618
2058.00000,18.95552
2060.00000,50.74635
2062.00000,48.77403
2064.00000,30.34250
2066.00000,27.79843
2068.00000,49.23254
2070.00000,76.76705
2072.00000,67.58967
2074.00000,44.85531
2076.00000,52.11552
2078.00000,82.39630
2080.00000,72.03518
2082.00000,73.67519
2084.00000,79.19834
2086.00000,54.62028
2088.00000,47.34932
2090.00000,47.20035
2092.00000,41.81133
2094.00000,39.54794
2096.00000,50.95997
2098.00000,52.06980
2100.00000,24.17116
2102.00000,29.74422
2104.00000,88.24830
2106.00000,58.55221
2108.00000,23.37191
2110.00000,34.68983
2112.00000,63.38254
2114.00000,75.59373
2116.00000,84.37667
2118.00000,91.43554
2120.00000,98.62066
2122.00000,109.23131
2124.00000,106.57659
2126.00000,73.76725
2128.00000,75.97318
2130.00000,119.78214
2132.00000,85.81370
2134.00000,60.82716
2136.00000,78.59542
2138.00000,87.09785
2140.00000,50.88579
2142.00000,45.32203
2144.00000,55.65210
2146.00000,63.02179
2148.00000,67.96207
2150.00000,55.84664
2152.00000,39.32089
2154.00000,50.61868
2156.00000,64.69689
2158.00000,34.22090
2160.00000,64.82317
2162.00000,115.13622
2164.00000,128.72987
2166.00000,114.48970
2168.00000,89.46033
2170.00000,54.84624
2172.00000,47.13867
2174.00000,75.07321
2176.00000,80.52832
2178.00000,61.23149
2180.00000,67.39608
2182.00000,94.44618
2184.00000,84.07307
2186.00000,49.62333
2188.00000,58.20729
2190.00000,77.43559
2192.00000,67.93082
2194.00000,88.88764
2196.00000,63.57523
2198.00000,66.34944
2200.00000,103.13385
2202.00000,61.97346
2204.00000,67.83140
2206.00000,135.97954
2208.00000,140.56331
2210.00000,60.12757
2212.00000,108.70633
2214.00000,103.53979
2216.00000,53.70144
2218.00000,85.95445
2220.00000,155.58257
2222.00000,100.86128
2224.00000,70.08395
2226.00000,114.09148
2228.00000,108.23884
2230.00000,93.63697
2232.00000,85.10587
2234.00000,83.23427
2236.00000,90.56106
2238.00000,100.08574
2240.00000,78.26799
2242.00000,61.85527
2244.00000,74.16379
2246.00000,82.39410
2248.00000,72.61009
2250.00000,60.01001
2252.00000,65.42117
2254.00000,84.98597
2256.00000,85.09432
2258.00000,67.18552
2260.00000,72.08943
2262.00000,93.12719
2264.00000,77.83401
2266.00000,74.86515
2268.00000,83.51558
2270.00000,92.28252
2272.00000,94.27107
2274.00000,70.59125
2276.00000,70.51593
2278.00000,87.37576
2280.00000,80.06380
2282.00000,63.10500
2284.00000,117.46110
2286.00000,134.34198
2288.00000,101.83270
2290.00000,131.82089
2292.00000,144.07683
2294.00000,119.84135
2296.00000,115.10488
2298.00000,133.77036
2300.00000,94.80376
2302.00000,111.37263
2304.00000,130.52046
2306.00000,96.89700
2308.00000,85.23267
2310.00000,113.31501
2312.00000,108.95975
2314.00000,102.70404
2316.00000,142.15697
2318.00000,121.33464
2320.00000,100.23322
2322.00000,91.93990
2324.00000,85.34610
2326.00000,95.82440
2328.00000,70.08083
2330.00000,82.89155
2332.00000,99.68784
2334.00000,47.88825
2336.00000,88.44086
2338.00000,80.46011
2340.00000,49.34126
2342.00000,69.23014
2344.00000,34.82799
2346.00000,37.62981
2348.00000,71.30348
2350.00000,80.86171
2352.00000,73.65646
2354.00000,105.41273
2356.00000,105.30725
2358.00000,69.33996
2360.00000,71.23956
2362.00000,118.13593
2364.00000,104.95551
2366.00000,76.68279
2368.00000,90.01374
2370.00000,92.75957
2372.00000,79.22607
2374.00000,84.95840
2376.00000,99.94093
2378.00000,96.24707
2380.00000,106.58688
2382.00000,98.75452
2384.00000,96.13467
2386.00000,104.79950
2388.00000,68.49823
2390.00000,54.95658
2392.00000,73.68797
2394.00000,89.52976
2396.00000,82.78880
2398.00000,74.76205
2400.00000,88.97218
2402.00000,110.20964
2404.00000,93.93678
2406.00000,37.45023
2408.00000,73.42501
2410.00000,123.00751
2412.00000,92.58598
2414.00000,51.70834
2416.00000,78.94982
2418.00000,72.94453
2420.00000,64.11922
2422.00000,122.68701
2424.00000,105.88064
2426.00000,83.45811
2428.00000,73.73154
2430.00000,63.42718
2432.00000,85.49899
2434.00000,121.79610
2436.00000,113.62901
2438.00000,67.29222
2440.00000,62.23964
2442.00000,126.78926
2444.00000,106.21507
2446.00000,68.07614
2448.00000,127.01164
2450.00000,166.27119
2452.00000,126.19405
2454.00000,109.06996
2456.00000,144.79608
2458.00000,137.35559
2460.00000,103.36942
2462.00000,117.63007
2464.00000,157.90053
2466.00000,151.08452
2468.00000,111.78901
2470.00000,106.00732
2472.00000,112.91905
2474.00000,106.81241
2476.00000,120.19115
2478.00000,148.80211
2480.00000,145.15982
2482.00000,102.23784
2484.00000,85.43229
2486.00000,143.20241
2488.00000,86.76376
2490.00000,61.70130
2492.00000,156.88976
2494.00000,112.40572
2496.00000,85.23437
2498.00000,120.46980
2500.00000,124.15006
2502.00000,71.23637
2504.00000,122.45620
2506.00000,127.10222
2508.00000,63.22918
2510.00000,45.73771
2512.00000,72.15491
2514.00000,55.48327
2516.00000,66.25044
2518.00000,114.95486
2520.00000,94.40840
2522.00000,81.45691
2524.00000,121.47184
2526.00000,108.89635
2528.00000,28.12605
2530.00000,117.80074
2532.00000,134.96091
2534.00000,81.22736
2536.00000,100.83205
2538.00000,149.09088
2540.00000,90.91007
2542.00000,99.84686
2544.00000,174.94408
2546.00000,135.56537
2548.00000,96.03905
2550.00000,133.56854
2552.00000,157.86642
2554.00000,119.32603
2556.00000,133.88457
2558.00000,134.33133
2560.00000,107.06578
2562.00000,103.21735
2564.00000,146.73416
2566.00000,164.10043
2568.00000,108.84147
2570.00000,85.10532
2572.00000,131.84074
2574.00000,70.16716
2576.00000,61.26090
2578.00000,143.65942
2580.00000,166.59062
2582.00000,57.61987
2584.00000,103.74709
2586.00000,156.22466
2588.00000,86.05131
2590.00000,36.49147
2592.00000,153.52252
2594.00000,138.71538
2596.00000,73.85928
2598.00000,137.56996
2600.00000,172.65828
2602.00000,127.46732
2604.00000,79.37202
2606.00000,118.21584
2608.00000,196.09181
2610.00000,123.01834
2612.00000,122.89835
2614.00000,186.54211
2616.00000,148.13599
2618.00000,95.13118
2620.00000,172.90109
2622.00000,187.69756
2624.00000,104.99291
2626.00000,154.41959
2628.00000,175.38583
2630.00000,107.74476
2632.00000,88.47588
2634.00000,166.54120
2636.00000,118.19389
2638.00000,125.16145
2640.00000,186.45767
2642.00000,178.82199
2644.00000,127.06974
2646.00000,168.01588
2648.00000,160.84587
2650.00000,70.79160
2652.00000,42.96281
2654.00000,82.40975
2656.00000,121.36810
2658.00000,101.91170
2660.00000,54.65749
2662.00000,71.90746
2664.00000,97.12430
2666.00000,73.42815
2668.00000,54.86632
2670.00000,92.88947
2672.00000,41.74591
2674.00000,76.57385
2676.00000,139.95465
2678.00000,92.46842
2680.00000,100.61522
2682.00000,78.90237
2684.00000,77.22237
2686.00000,126.43254
2688.00000,125.32074
2690.00000,111.35664
2692.00000,132.26115
2694.00000,145.05402
2696.00000,117.07652
2698.00000,144.85982
2700.00000,137.98701
2702.00000,152.24060
2704.00000,190.44615
2706.00000,108.93215
2708.00000,138.98535
2710.00000,221.81165
2712.00000,211.90793
2714.00000,150.38937
2716.00000,202.53708
2718.00000,170.29303
2720.00000,129.49275
2722.00000,213.12646
2724.00000,214.43340
2726.00000,192.32573
2728.00000,229.87909
2730.00000,250.28877
2732.00000,164.21419
2734.00000,200.51212
2736.00000,252.81915
2738.00000,202.79723
2740.00000,153.18806
2742.00000,262.44965
2744.00000,212.56651
2746.00000,166.20427
2748.00000,246.66251
2750.00000,173.50125
2752.00000,143.77946
2754.00000,158.03984
2756.00000,152.97612
2758.00000,139.69305
2760.00000,142.45961
2762.00000,190.74208
2764.00000,200.07477
2766.00000,145.56903
2768.00000,137.50774
2770.00000,50.36646
2772.00000,76.69491
2774.00000,180.97408
2776.00000,95.48672
2778.00000,73.57048
2780.00000,104.53204
2782.00000,105.48397
2784.00000,96.67023
2786.00000,133.46368
2788.00000,57.04088
2790.00000,52.01276
2792.00000,138.91025
2794.00000,61.34035
2796.00000,116.50529
2798.00000,153.21497
2800.00000,64.14046
2802.00000,19.68848
2804.00000,140.89859
2806.00000,162.61153
2808.00000,172.18900
2810.00000,229.97325
2812.00000,104.88133
2814.00000,116.78484
2816.00000,137.91203
2818.00000,70.81596
2820.00000,65.59875
2822.00000,102.31901
2824.00000,110.53770
2826.00000,141.32124
2828.00000,192.84535
2830.00000,115.91080
2832.00000,106.32558
2834.00000,253.25772
2836.00000,360.26898
2838.00000,279.08182
2840.00000,408.46973
2842.00000,472.31009
2844.00000,483.16931
2846.00000,668.77216
2848.00000,765.88361
2850.00000,747.77612
2852.00000,831.21191
2854.00000,968.66644
2856.00000,878.26807
2858.00000,952.33002
2860.00000,1079.37390
2862.00000,1076.28796
2864.00000,1051.00159
2866.00000,1174.25183
2868.00000,1154.58423
2870.00000,1104.45117
2872.00000,1203.80151
2874.00000,1207.21008
2876.00000,1127.98340
2878.00000,1147.63025
2880.00000,1206.01794
2882.00000,1127.18750
2884.00000,1165.54199
2886.00000,1195.67383
2888.00000,1167.66174
2890.00000,1173.75513
2892.00000,1225.94458
2894.00000,1354.30078
2896.00000,1399.78198
2898.00000,1334.35876
2900.00000,1355.47937
2902.00000,1428.27344
2904.00000,1468.12732
2906.00000,1476.82263
2908.00000,1468.71362
2910.00000,1395.34265
2912.00000,1494.05969
2914.00000,1574.84375
2916.00000,1480.67468
2918.00000,1489.09668
2920.00000,1547.00378
2922.00000,1456.98511
2924.00000,1336.15820
2926.00000,1376.46216
2928.00000,1262.46582
2930.00000,1303.97388
2932.00000,1317.28748
2934.00000,1122.50977
2936.00000,1180.04578
2938.00000,1083.32410
2940.00000,995.04297
2942.00000,1022.22754
2944.00000,897.89954
2946.00000,827.14801
2948.00000,770.37885
2950.00000,679.36237
2952.00000,625.92487
2954.00000,641.79156
2956.00000,503.51044
2958.00000,449.88989
2960.00000,545.43805
2962.00000,431.80319
2964.00000,411.69098
2966.00000,332.97980
2968.00000,249.86656
2970.00000,358.19473
2972.00000,304.50476
2974.00000,242.86650
2976.00000,261.44086
2978.00000,279.77097
2980.00000,262.16623
2982.00000,252.33957
2984.00000,123.83091
2986.00000,37.63332
2988.00000,192.88495
2990.00000,56.44406
2992.00000,48.57842
2994.00000,129.29135
2996.00000,-0.02176
2998.00000,-0.90473
3000.00000,97.33062
3002.00000,68.81666
3004.00000,9.96392
3006.00000,175.06285
3008.00000,107.74131
3010.00000,94.60103
3012.00000,150.66400
3014.00000,110.60905
3016.00000,358.79413
3018.00000,326.86908
3020.00000,220.60713
3022.00000,317.49088
3024.00000,274.76410
3026.00000,515.09772
3028.00000,508.45432
3030.00000,344.14716
3032.00000,617.27960
3034.00000,628.75610
3036.00000,792.12769
3038.00000,921.54517
3040.00000,785.03125
3042.00000,1005.56775
3044.00000,1087.31238
3046.00000,1008.29089
3048.00000,1139.43774
3050.00000,1472.46692
3052.00000,1349.03760
3054.00000,1509.15955
3056.00000,1772.56775
3058.00000,1518.85828
3060.00000,1458.51172
3062.00000,1461.08020
3064.00000,1523.12158
3066.00000,1520.10437
3068.00000,1166.39465
3070.00000,1031.15356
3072.00000,1039.69727
3074.00000,930.14569
3076.00000,751.54419
3078.00000,740.97198
3080.00000,659.96918
3082.00000,491.82602
3084.00000,409.10706
3086.00000,398.44254
3088.00000,280.41315
3090.00000,355.09497
3092.00000,390.54535
3094.00000,12.77920
3096.00000,237.44992
3098.00000,330.60455
3100.00000,68.31399
3102.00000,19.74064
3104.00000,239.08295
3106.00000,124.57216
3108.00000,49.63689
3110.00000,189.06737
3112.00000,26.44887
3114.00000,-26.36057
3116.00000,32.00347
3118.00000,62.49291
3120.00000,82.37631
3122.00000,162.34184
3124.00000,95.34701
3126.00000,-35.67392
3128.00000,12.74133
3130.00000,197.85883
3132.00000,80.14395
3134.00000,81.49277
3136.00000,193.53395
3138.00000,14.24495
3140.00000,86.50405
3142.00000,105.92465
3144.00000,64.60398
3146.00000,142.11681
3148.00000,150.43616
3150.00000,176.26056
3152.00000,74.32384
3154.00000,24.14133
3156.00000,331.03860
3158.00000,330.10083
3160.00000,211.95610
3162.00000,207.48123
3164.00000,242.37645
3166.00000,248.35815
3168.00000,217.99995
3170.00000,283.85159
3172.00000,387.57034
3174.00000,256.01276
3176.00000,44.23936
3178.00000,137.82651
3180.00000,300.87396
3182.00000,152.44086
3184.00000,194.31258
3186.00000,134.60577
3188.00000,85.35323
3190.00000,207.54225
3192.00000,162.46263
3194.00000,98.25015
3196.00000,119.32845
3198.00000,131.83719
3200.00000,63.91720
