300.00000,182.00090
302.00000,190.46082
304.00000,175.47920
306.00000,164.36003
308.00000,178.95064
310.00000,198.41913
312.00000,194.40900
314.00000,200.76598
316.00000,220.28941
318.00000,242.33333
320.00000,256.05142
322.00000,253.79457
324.00000,256.28162
326.00000,253.16505
328.00000,242.72107
330.00000,246.71288
332.00000,255.48891
334.00000,271.43399
336.00000,293.46100
338.00000,307.41592
340.00000,301.74649
342.00000,302.59338
344.00000,313.31146
346.00000,318.23535
348.00000,312.68350
350.00000,316.35577
352.00000,317.71732
354.00000,308.44229
356.00000,292.70761
358.00000,275.48175
360.00000,266.42282
362.00000,255.69933
364.00000,232.62210
366.00000,208.11684
368.00000,208.48277
370.00000,214.73962
372.00000,204.53270
374.00000,191.06903
376.00000,206.30136
378.00000,210.91182
380.00000,203.53670
382.00000,211.09935
384.00000,230.98233
386.00000,212.45099
388.00000,200.28058
390.00000,212.54449
392.00000,225.13741
394.00000,232.06511
396.00000,253.15222
398.00000,276.91498
400.00000,298.54459
402.00000,333.78796
404.00000,381.93198
406.00000,443.92319
408.00000,504.40222
410.00000,556.95990
412.00000,627.18866
414.00000,728.10376
416.00000,830.18994
418.00000,924.13690
420.00000,1032.93982
422.00000,1157.90454
424.00000,1303.05090
426.00000,1467.68164
428.00000,1638.33020
430.00000,1798.16833
432.00000,1956.01514
434.00000,2104.28418
436.00000,2249.01270
438.00000,2408.44678
440.00000,2572.42847
442.00000,2727.43384
444.00000,2824.57739
446.00000,2835.86548
448.00000,2799.86646
450.00000,2745.60083
452.00000,2652.78198
454.00000,2498.73975
456.00000,2296.52734
458.00000,2083.95166
460.00000,1859.59961
462.00000,1636.92212
464.00000,1437.69397
466.00000,1252.94165
468.00000,1042.99719
470.00000,875.69159
472.00000,761.84052
474.00000,640.73871
476.00000,526.81085
478.00000,431.86453
480.00000,355.06677
482.00000,292.73920
484.00000,246.72856
486.00000,218.48734
488.00000,180.32204
490.00000,132.05531
492.00000,103.47756
494.00000,102.45065
496.00000,118.90940
498.00000,128.40332
500.00000,113.99812
502.00000,87.87836
504.00000,86.25747
506.00000,105.50829
508.00000,120.01225
510.00000,114.63078
512.00000,101.39247
514.00000,100.79732
516.00000,107.31593
518.00000,106.21435
520.00000,100.67335
522.00000,109.73712
524.00000,131.26053
526.00000,152.40735
528.00000,160.78920
530.00000,150.91483
532.00000,139.16966
534.00000,123.06114
536.00000,106.68083
538.00000,109.30206
540.00000,112.54826
542.00000,99.10707
544.00000,84.05189
546.00000,84.84324
548.00000,82.48502
550.00000,86.52984
552.00000,101.48948
554.00000,112.01842
556.00000,108.06143
558.00000,126.51272
560.00000,165.98639
562.00000,205.84097
564.00000,231.88042
566.00000,249.28586
568.00000,290.76117
570.00000,358.00256
572.00000,432.29498
574.00000,494.15005
576.00000,525.63123
578.00000,572.59845
580.00000,656.55646
582.00000,746.83850
584.00000,819.99280
586.00000,939.07990
588.00000,1064.30151
590.00000,1160.28918
592.00000,1267.42773
594.00000,1381.91895
596.00000,1497.16125
598.00000,1610.97339
600.00000,1725.47668
602.00000,1849.95435
604.00000,2000.33350
606.00000,2141.19043
608.00000,2225.01563
610.00000,2240.32446
612.00000,2212.27051
614.00000,2159.45972
616.00000,2074.44922
618.00000,1959.40881
620.00000,1843.12561
622.00000,1689.97742
624.00000,1504.74280
626.00000,1314.96362
628.00000,1142.77295
630.00000,1010.23114
632.00000,880.03162
634.00000,757.85956
636.00000,674.99731
638.00000,616.63043
640.00000,553.18768
642.00000,464.80112
644.00000,380.67456
646.00000,344.06891
648.00000,322.75317
650.00000,304.66766
652.00000,290.32294
654.00000,274.07379
656.00000,248.44757
658.00000,235.03342
660.00000,220.65472
662.00000,192.08559
664.00000,164.06407
666.00000,155.35054
668.00000,155.19501
670.00000,164.60333
672.00000,191.87111
674.00000,219.16934
676.00000,200.65700
678.00000,185.21831
680.00000,201.35262
682.00000,204.07567
684.00000,167.09717
686.00000,124.72095
688.00000,89.24883
690.00000,70.41259
692.00000,93.40086
694.00000,101.32649
696.00000,89.49193
698.00000,84.90301
700.00000,95.57937
702.00000,101.94733
704.00000,114.47311
706.00000,136.98557
708.00000,153.22728
710.00000,150.44965
712.00000,157.15138
714.00000,162.00261
716.00000,161.67799
718.00000,169.94556
720.00000,173.89279
722.00000,183.81157
724.00000,194.19765
726.00000,198.00958
728.00000,207.07718
730.00000,218.43826
732.00000,200.96980
734.00000,171.11220
736.00000,172.12082
738.00000,183.91896
740.00000,198.39223
742.00000,202.25343
744.00000,203.65137
746.00000,230.14142
748.00000,246.02066
750.00000,237.41150
752.00000,220.79512
754.00000,201.23004
756.00000,153.20810
758.00000,139.42657
760.00000,158.59740
762.00000,174.16367
764.00000,181.02328
766.00000,166.83362
768.00000,147.50401
770.00000,137.66550
772.00000,131.02165
774.00000,118.23092
776.00000,132.66318
778.00000,153.27849
780.00000,159.32890
782.00000,183.06993
784.00000,232.24518
786.00000,256.09610
788.00000,243.48579
790.00000,228.42442
792.00000,217.00476
794.00000,201.17294
796.00000,188.05020
798.00000,174.65680
800.00000,150.57697
802.00000,157.80069
804.00000,198.30331
806.00000,238.45493
808.00000,244.94640
810.00000,222.39725
812.00000,224.66515
814.00000,240.21925
816.00000,226.79381
818.00000,190.84866
820.00000,193.00813
822.00000,175.71809
824.00000,137.29373
826.00000,134.75580
828.00000,158.74229
830.00000,198.34982
832.00000,228.70500
834.00000,238.84631
836.00000,240.32298
838.00000,232.07071
840.00000,237.66214
842.00000,238.94435
844.00000,213.21222
846.00000,199.03784
848.00000,192.38188
850.00000,180.20555
852.00000,171.13206
854.00000,183.24365
856.00000,197.90997
858.00000,194.49065
860.00000,172.96880
862.00000,146.46367
864.00000,127.95770
866.00000,140.60172
868.00000,139.01941
870.00000,123.01804
872.00000,142.43285
874.00000,133.41379
876.00000,122.29051
878.00000,120.64317
880.00000,124.39404
882.00000,153.29802
884.00000,136.50499
886.00000,111.24315
888.00000,111.86748
890.00000,109.48718
892.00000,124.06493
894.00000,118.24175
896.00000,103.19890
898.00000,108.13299
900.00000,103.57216
902.00000,88.29735
904.00000,85.45370
906.00000,100.06409
908.00000,107.46966
910.00000,91.47821
912.00000,74.49290
914.00000,78.17351
916.00000,90.06268
918.00000,79.48074
920.00000,78.14547
922.00000,79.71252
924.00000,70.97099
926.00000,64.48181
928.00000,73.53914
930.00000,85.09898
932.00000,96.21995
934.00000,102.51796
936.00000,86.91345
938.00000,73.23645
940.00000,69.16782
942.00000,71.23564
944.00000,74.58535
946.00000,72.15956
948.00000,85.23502
950.00000,95.32014
952.00000,94.17920
954.00000,120.43566
956.00000,136.91248
958.00000,157.76170
960.00000,190.92950
962.00000,209.33832
964.00000,210.66095
966.00000,227.73158
968.00000,238.58031
970.00000,231.39922
972.00000,250.60239
974.00000,253.33842
976.00000,247.52533
978.00000,253.12540
980.00000,257.51230
982.00000,244.83768
984.00000,277.69971
986.00000,325.42090
988.00000,338.71442
990.00000,353.16837
992.00000,379.62164
994.00000,460.18442
996.00000,613.28674
998.00000,797.72125
1000.00000,935.02655
1002.00000,953.76495
1004.00000,852.75244
1006.00000,695.29504
1008.00000,554.21057
1010.00000,449.54428
1012.00000,396.40863
1014.00000,367.55927
1016.00000,337.98596
1018.00000,359.53665
1020.00000,405.56311
1022.00000,442.76535
1024.00000,480.23557
1026.00000,545.44464
1028.00000,605.53912
1030.00000,652.01672
1032.00000,660.99524
1034.00000,618.40942
1036.00000,578.44244
1038.00000,546.85870
1040.00000,546.47015
1042.00000,583.02765
1044.00000,606.85193
1046.00000,574.84760
1048.00000,542.62134
1050.00000,550.80963
1052.00000,579.97675
1054.00000,607.61426
1056.00000,650.97504
1058.00000,691.99066
1060.00000,694.13190
1062.00000,665.98096
1064.00000,684.12994
1066.00000,709.34100
1068.00000,712.34058
1070.00000,709.22437
1072.00000,696.41101
1074.00000,691.85516
1076.00000,703.19208
1078.00000,728.65576
1080.00000,757.22156
1082.00000,758.92328
1084.00000,769.86865
1086.00000,765.40076
1088.00000,713.37402
1090.00000,681.23370
1092.00000,614.88770
1094.00000,564.46661
1096.00000,566.80170
1098.00000,560.08630
1100.00000,551.21368
1102.00000,568.58142
1104.00000,600.43353
1106.00000,605.62274
1108.00000,578.91565
1110.00000,589.22107
1112.00000,592.36188
1114.00000,553.20093
1116.00000,513.87085
1118.00000,457.41376
1120.00000,456.66220
1122.00000,508.64883
1124.00000,546.87384
1126.00000,558.68176
1128.00000,520.70715
1130.00000,487.42862
1132.00000,461.28738
1134.00000,406.80081
1136.00000,459.31183
1138.00000,558.30792
1140.00000,605.48975
1142.00000,592.84540
1144.00000,577.36292
1146.00000,544.82434
1148.00000,541.67297
1150.00000,587.20966
1152.00000,634.09003
1154.00000,678.91730
1156.00000,727.41626
1158.00000,764.18842
1160.00000,767.27972
1162.00000,741.64923
1164.00000,719.66602
1166.00000,683.51575
1168.00000,650.74957
1170.00000,661.23749
1172.00000,646.44208
1174.00000,636.65973
1176.00000,639.66760
1178.00000,636.64459
1180.00000,648.99756
1182.00000,694.26471
1184.00000,711.28168
1186.00000,692.09869
1188.00000,690.84363
1190.00000,670.00330
1192.00000,630.55176
1194.00000,582.75348
1196.00000,552.29492
1198.00000,582.88342
1200.00000,652.43127
1202.00000,698.78827
1204.00000,697.51038
1206.00000,675.82452
1208.00000,649.07166
1210.00000,607.35333
1212.00000,575.67114
1214.00000,557.76404
1216.00000,509.06195
1218.00000,491.40552
1220.00000,515.87744
1222.00000,565.22095
1224.00000,627.18817
1226.00000,681.72028
1228.00000,729.05786
1230.00000,764.50360
1232.00000,766.17218
1234.00000,714.63049
1236.00000,642.64044
1238.00000,604.84094
1240.00000,615.79907
1242.00000,636.14630
1244.00000,617.56104
1246.00000,552.17761
1248.00000,521.34570
1250.00000,557.22650
1252.00000,568.62305
1254.00000,553.99750
1256.00000,541.87805
1258.00000,539.09070
1260.00000,539.48676
1262.00000,563.55627
1264.00000,618.28607
1266.00000,617.45349
1268.00000,566.47125
1270.00000,597.73334
1272.00000,592.83319
1274.00000,640.57666
1276.00000,767.16602
1278.00000,862.70093
1280.00000,909.90448
1282.00000,896.27191
1284.00000,818.03217
1286.00000,726.27209
1288.00000,694.43695
1290.00000,671.42767
1292.00000,652.17169
1294.00000,631.87207
1296.00000,586.82379
1298.00000,531.53418
1300.00000,538.27643
1302.00000,576.29919
1304.00000,597.41895
1306.00000,617.56824
1308.00000,609.37769
1310.00000,615.14868
1312.00000,636.27148
1314.00000,636.36841
1316.00000,638.38519
1318.00000,642.88483
1320.00000,654.54028
1322.00000,660.38379
1324.00000,638.47937
1326.00000,628.70074
1328.00000,605.06610
1330.00000,574.36792
1332.00000,566.12079
1334.00000,555.77551
1336.00000,584.26385
1338.00000,596.37720
1340.00000,581.63153
1342.00000,618.75830
1344.00000,626.79974
1346.00000,617.18103
1348.00000,629.29034
1350.00000,682.85376
1352.00000,783.27521
1354.00000,870.35614
1356.00000,927.83844
1358.00000,942.24170
1360.00000,889.42548
1362.00000,824.73981
1364.00000,743.32739
1366.00000,689.79675
1368.00000,681.84259
1370.00000,621.94806
1372.00000,629.88727
1374.00000,645.31873
1376.00000,602.76550
1378.00000,580.20062
1380.00000,579.33942
1382.00000,568.11041
1384.00000,553.25916
1386.00000,573.97974
1388.00000,627.09515
1390.00000,606.94568
1392.00000,564.28473
1394.00000,519.52441
1396.00000,414.39783
1398.00000,376.21790
1400.00000,355.33969
1402.00000,302.46753
1404.00000,251.61417
1406.00000,235.01201
1408.00000,187.24248
1410.00000,174.38655
1412.00000,204.14767
1414.00000,180.38060
1416.00000,165.06880
1418.00000,159.24889
1420.00000,150.52257
1422.00000,145.93037
1424.00000,148.63150
1426.00000,130.73759
1428.00000,118.98925
1430.00000,131.26918
1432.00000,145.56099
1434.00000,163.20001
1436.00000,188.71790
1438.00000,214.27403
1440.00000,235.78920
1442.00000,269.88040
1444.00000,324.93182
1446.00000,366.34595
1448.00000,390.54092
1450.00000,411.06564
1452.00000,371.36713
1454.00000,364.02393
1456.00000,400.94385
1458.00000,420.17136
1460.00000,417.45596
1462.00000,410.73856
1464.00000,401.31488
1466.00000,359.55405
1468.00000,305.26135
1470.00000,355.82162
1472.00000,302.84338
1474.00000,295.40295
1476.00000,434.19165
1478.00000,390.33368
1480.00000,455.64514
1482.00000,513.99182
1484.00000,491.16766
1486.00000,525.19220
1488.00000,489.81033
1490.00000,435.21500
1492.00000,418.98364
1494.00000,389.55844
1496.00000,281.90091
1498.00000,262.70520
1500.00000,264.83374
1502.00000,225.82777
1504.00000,213.27217
1506.00000,229.11754
1508.00000,191.91292
1510.00000,160.06462
1512.00000,169.69878
1514.00000,132.00914
1516.00000,180.34090
1518.00000,178.00987
1520.00000,128.76830
1522.00000,168.75385
1524.00000,144.48688
1526.00000,189.88660
1528.00000,229.98512
1530.00000,187.32576
1532.00000,210.00475
1534.00000,200.26958
1536.00000,189.91988
1538.00000,225.50101
1540.00000,263.92108
1542.00000,253.74219
1544.00000,277.27344
1546.00000,327.95169
1548.00000,357.91608
1550.00000,395.04779
1552.00000,473.10590
1554.00000,470.05826
1556.00000,414.28787
1558.00000,424.76910
1560.00000,405.83301
1562.00000,411.34378
1564.00000,443.28302
1566.00000,452.30606
1568.00000,454.20422
1570.00000,549.21021
1572.00000,609.21790
1574.00000,668.04315
1576.00000,842.26318
1578.00000,936.10040
1580.00000,887.54779
1582.00000,877.42102
1584.00000,900.42511
1586.00000,747.01251
1588.00000,732.63025
1590.00000,656.23572
1592.00000,539.03296
1594.00000,593.91553
1596.00000,599.41388
1598.00000,600.73523
1600.00000,639.36084
1602.00000,669.41400
1604.00000,642.00299
1606.00000,598.09076
1608.00000,560.28619
1610.00000,528.57068
1612.00000,487.49802
1614.00000,428.76541
1616.00000,425.95764
1618.00000,409.76459
1620.00000,362.25146
1622.00000,382.22372
1624.00000,374.45496
1626.00000,352.52692
1628.00000,361.30573
1630.00000,366.81647
1632.00000,301.92285
1634.00000,336.00998
1636.00000,359.96722
1638.00000,302.56561
1640.00000,315.46011
1642.00000,340.57977
1644.00000,319.52173
1646.00000,328.94220
1648.00000,397.37411
1650.00000,365.66022
1652.00000,369.57831
1654.00000,400.57816
1656.00000,403.85245
1658.00000,410.48087
1660.00000,409.97229
1662.00000,423.22437
1664.00000,426.18124
1666.00000,418.33310
1668.00000,464.66919
1670.00000,420.66943
1672.00000,407.00943
1674.00000,465.95337
1676.00000,440.46994
1678.00000,431.66650
1680.00000,456.16467
1682.00000,438.15280
1684.00000,385.49344
1686.00000,434.29886
1688.00000,458.98566
1690.00000,408.40781
1692.00000,386.10034
1694.00000,442.97385
1696.00000,365.41016
1698.00000,358.51190
1700.00000,390.45233
1702.00000,352.39624
1704.00000,404.40417
1706.00000,283.94492
1708.00000,309.76410
1710.00000,437.53024
1712.00000,279.20004
1714.00000,403.02719
1716.00000,362.40604
1718.00000,297.06445
1720.00000,471.83661
1722.00000,375.36343
1724.00000,392.43362
1726.00000,457.96945
1728.00000,433.16635
1730.00000,445.02576
1732.00000,489.49051
1734.00000,428.48035
1736.00000,400.44263
1738.00000,462.83481
1740.00000,357.57321
1742.00000,400.93396
1744.00000,466.01733
1746.00000,422.42911
1748.00000,408.06705
1750.00000,440.98575
1752.00000,466.65448
1754.00000,440.66510
1756.00000,397.36240
1758.00000,414.94644
1760.00000,427.14774
1762.00000,392.86105
1764.00000,386.04022
1766.00000,447.45911
1768.00000,402.91489
1770.00000,355.14490
1772.00000,398.67157
1774.00000,445.41837
1776.00000,371.46066
1778.00000,392.11954
1780.00000,394.88052
1782.00000,372.72302
1784.00000,439.64145
1786.00000,398.97943
1788.00000,451.94809
1790.00000,457.94711
1792.00000,380.41498
1794.00000,539.69489
1796.00000,459.45218
1798.00000,415.11719
1800.00000,492.77747
1802.00000,430.25009
1804.00000,447.01334
1806.00000,345.72406
1808.00000,330.49341
1810.00000,454.24783
1812.00000,331.67209
1814.00000,414.27914
1816.00000,371.63528
1818.00000,239.47644
1820.00000,374.84308
1822.00000,322.30124
1824.00000,232.19272
1826.00000,305.54990
1828.00000,408.42413
1830.00000,300.73932
1832.00000,293.36945
1834.00000,318.02133
1836.00000,293.07321
1838.00000,295.78317
1840.00000,314.42505
1842.00000,281.36285
1844.00000,264.68082
1846.00000,311.74072
1848.00000,315.45508
1850.00000,219.21367
1852.00000,228.51070
1854.00000,251.51070
1856.00000,168.95377
1858.00000,338.04483
1860.00000,317.13226
1862.00000,279.29959
1864.00000,367.76648
1866.00000,265.08273
1868.00000,386.30499
1870.00000,489.87808
1872.00000,434.77954
1874.00000,421.80042
1876.00000,485.90479
1878.00000,444.74329
1880.00000,447.80121
1882.00000,508.07153
1884.00000,391.14163
1886.00000,428.19882
1888.00000,470.62665
1890.00000,458.72290
1892.00000,488.35855
1894.00000,457.99167
1896.00000,470.11819
1898.00000,470.70291
1900.00000,478.63977
1902.00000,592.33459
1904.00000,524.55902
1906.00000,499.67657
1908.00000,517.84930
1910.00000,451.30289
1912.00000,534.17444
1914.00000,564.63251
1916.00000,532.76776
1918.00000,519.19122
1920.00000,502.42426
1922.00000,500.86365
1924.00000,527.69324
1926.00000,490.50912
1928.00000,379.59567
1930.00000,396.67499
1932.00000,442.46518
1934.00000,462.44586
1936.00000,474.12881
1938.00000,468.19724
1940.00000,401.29681
1942.00000,398.18271
1944.00000,415.02332
1946.00000,399.14529
1948.00000,482.01242
1950.00000,384.51639
1952.00000,458.27542
1954.00000,624.72998
1956.00000,396.59174
1958.00000,483.33289
1960.00000,464.95282
1962.00000,393.90442
1964.00000,522.40961
1966.00000,402.92993
1968.00000,431.56046
1970.00000,461.90021
1972.00000,402.15656
1974.00000,467.21906
1976.00000,403.12576
1978.00000,355.25269
1980.00000,342.73499
1982.00000,296.12885
1984.00000,321.68091
1986.00000,326.65845
1988.00000,250.41171
1990.00000,172.90558
1992.00000,204.77296
1994.00000,264.64011
1996.00000,208.05914
1998.00000,144.35016
2000.00000,0.05657
2002.00000,0.01735
2004.00000,0.00891
2006.00000,0.00873
2008.00000,0.03704
2010.00000,0.05432
2012.00000,1.82348
2014.00000,4.31548
2016.00000,5.01639
2018.00000,7.77285
2020.00000,22.42166
2022.00000,34.86185
2024.00000,30.10884
2026.00000,21.89969
2028.00000,22.74228
2030.00000,33.26315
2032.00000,47.05278
2034.00000,62.60381
2036.00000,89.04497
2038.00000,109.15813
2040.00000,133.72888
2042.00000,161.54037
2044.00000,139.61052
2046.00000,127.70594
2048.00000,146.82222
2050.00000,165.30138
2052.00000,162.70493
2054.00000,175.47398
2056.00000,180.40981
2058.00000,187.07433
2060.00000,217.43315
2062.00000,215.22461
2064.00000,220.44798
2066.00000,252.04916
2068.00000,282.26089
2070.00000,288.51617
2072.00000,303.81360
2074.00000,327.37650
2076.00000,357.11578
2078.00000,394.84268
2080.00000,408.19534
2082.00000,426.49863
2084.00000,447.15390
2086.00000,446.66934
2088.00000,439.26440
2090.00000,431.26285
2092.00000,406.22751
2094.00000,368.04010
2096.00000,344.77710
2098.00000,327.17307
2100.00000,313.08649
2102.00000,273.07925
2104.00000,207.97627
2106.00000,199.28139
2108.00000,187.92007
2110.00000,173.23865
2112.00000,182.80304
2114.00000,185.74138
2116.00000,147.29599
2118.00000,122.81191
2120.00000,116.84927
2122.00000,90.33469
2124.00000,93.87416
2126.00000,78.57215
2128.00000,66.03572
2130.00000,80.86646
2132.00000,65.13390
2134.00000,84.48220
2136.00000,103.91624
2138.00000,102.30440
2140.00000,118.22871
2142.00000,109.58382
2144.00000,99.77774
2146.00000,106.43967
2148.00000,111.73683
2150.00000,107.31794
2152.00000,149.16180
2154.00000,174.93797
2156.00000,149.78456
2158.00000,149.30479
2160.00000,155.02161
2162.00000,138.08133
2164.00000,131.68225
2166.00000,167.74263
2168.00000,183.10007
2170.00000,203.86613
2172.00000,222.69771
2174.00000,217.39594
2176.00000,209.45186
2178.00000,214.36583
2180.00000,217.95824
2182.00000,211.25301
2184.00000,209.33974
2186.00000,225.45390
2188.00000,220.83130
2190.00000,207.57492
2192.00000,216.55000
2194.00000,225.87183
2196.00000,238.19716
2198.00000,244.61491
2200.00000,234.77174
2202.00000,214.12788
2204.00000,195.24918
2206.00000,164.44676
2208.00000,144.19267
2210.00000,164.57835
2212.00000,192.28409
2214.00000,207.48245
2216.00000,246.83353
2218.00000,290.08701
2220.00000,253.24811
2222.00000,225.22411
2224.00000,230.05354
2226.00000,219.51225
2228.00000,172.04269
2230.00000,158.22992
2232.00000,151.51912
2234.00000,161.73782
2236.00000,204.57159
2238.00000,237.44426
2240.00000,273.44226
2242.00000,311.73093
2244.00000,342.45697
2246.00000,355.37643
2248.00000,336.77783
2250.00000,351.45447
2252.00000,362.10257
2254.00000,318.22885
2256.00000,315.75543
2258.00000,343.53375
2260.00000,359.32574
2262.00000,352.34955
2264.00000,353.52026
2266.00000,385.67673
2268.00000,370.63733
2270.00000,334.23187
2272.00000,363.72906
2274.00000,396.10989
2276.00000,401.74445
2278.00000,404.89267
2280.00000,419.53516
2282.00000,425.38770
2284.00000,454.56314
2286.00000,471.96262
2288.00000,467.59766
2290.00000,487.14981
2292.00000,530.81610
2294.00000,524.26282
2296.00000,482.29260
2298.00000,467.58176
2300.00000,468.64874
2302.00000,453.02368
2304.00000,432.90216
2306.00000,435.28217
2308.00000,450.86362
2310.00000,433.82681
2312.00000,455.08588
2314.00000,515.96954
2316.00000,560.82050
2318.00000,605.83575
2320.00000,590.56116
2322.00000,590.32123
2324.00000,640.47302
2326.00000,632.95630
2328.00000,619.88007
2330.00000,650.81091
2332.00000,684.04254
2334.00000,656.82281
2336.00000,620.42169
2338.00000,619.96729
2340.00000,623.70148
2342.00000,598.26288
2344.00000,586.08771
2346.00000,615.02374
2348.00000,616.02832
2350.00000,603.89093
2352.00000,657.69739
2354.00000,667.33777
2356.00000,650.34796
2358.00000,619.95081
2360.00000,595.59308
2362.00000,642.99860
2364.00000,612.01025
2366.00000,578.36328
2368.00000,622.44763
2370.00000,638.23590
2372.00000,612.86206
2374.00000,617.20514
2376.00000,632.39185
2378.00000,607.51855
2380.00000,619.44196
2382.00000,613.27643
2384.00000,613.52014
2386.00000,623.06836
2388.00000,571.94196
2390.00000,621.03821
2392.00000,633.94257
2394.00000,609.08850
2396.00000,697.21368
2398.00000,698.26544
2400.00000,673.66089
2402.00000,663.27570
2404.00000,644.94208
2406.00000,645.24329
2408.00000,625.34454
2410.00000,604.81793
2412.00000,604.52075
2414.00000,595.60956
2416.00000,559.05371
2418.00000,531.01361
2420.00000,523.00085
2422.00000,507.18567
2424.00000,469.68774
2426.00000,441.70758
2428.00000,407.24026
2430.00000,371.00174
2432.00000,377.40393
2434.00000,360.87186
2436.00000,344.83960
2438.00000,347.72318
2440.00000,334.05203
2442.00000,290.03296
2444.00000,277.37836
2446.00000,292.01993
2448.00000,278.29022
2450.00000,231.00034
2452.00000,232.80154
2454.00000,247.41617
2456.00000,222.37195
2458.00000,193.49982
2460.00000,223.41141
2462.00000,197.82739
2464.00000,165.93639
2466.00000,223.49335
2468.00000,247.71721
2470.00000,255.43167
2472.00000,263.55936
2474.00000,268.24692
2476.00000,275.99710
2478.00000,295.36292
2480.00000,279.65823
2482.00000,273.14774
2484.00000,311.09390
2486.00000,265.05865
2488.00000,301.72803
2490.00000,332.13516
2492.00000,282.20242
2494.00000,337.75180
2496.00000,355.12061
2498.00000,358.16187
2500.00000,389.69894
2502.00000,398.12561
2504.00000,372.14935
2506.00000,366.31476
2508.00000,368.85605
2510.00000,363.99792
2512.00000,402.14560
2514.00000,404.63885
2516.00000,400.64362
2518.00000,417.39734
2520.00000,411.26563
2522.00000,405.64441
2524.00000,412.80023
2526.00000,439.25211
2528.00000,463.08563
2530.00000,435.84656
2532.00000,440.47491
2534.00000,477.63419
2536.00000,494.54288
2538.00000,486.99509
2540.00000,493.15103
2542.00000,497.52661
2544.00000,473.34314
2546.00000,451.64993
2548.00000,503.71780
2550.00000,483.10544
2552.00000,437.05685
2554.00000,462.69690
2556.00000,467.68185
2558.00000,465.48743
2560.00000,471.27216
2562.00000,472.07239
2564.00000,464.55069
2566.00000,485.34137
2568.00000,451.17746
2570.00000,426.44354
2572.00000,480.76239
2574.00000,457.53925
2576.00000,383.41110
2578.00000,382.81186
2580.00000,431.43634
2582.00000,398.62485
2584.00000,434.61026
2586.00000,431.61865
2588.00000,386.88443
2590.00000,414.65720
2592.00000,431.52814
2594.00000,407.35529
2596.00000,397.91522
2598.00000,407.14746
2600.00000,364.79230
2602.00000,377.42770
2604.00000,407.86441
2606.00000,392.89725
2608.00000,355.23407
2610.00000,348.51068
2612.00000,361.95496
2614.00000,365.06357
2616.00000,343.42178
2618.00000,317.65250
2620.00000,341.19229
2622.00000,292.60193
2624.00000,225.89835
2626.00000,320.99963
2628.00000,291.84821
2630.00000,234.67827
2632.00000,260.06314
2634.00000,281.86588
2636.00000,210.56244
2638.00000,282.35431
2640.00000,348.07254
2642.00000,269.64120
2644.00000,257.19998
2646.00000,286.90268
2648.00000,268.00644
2650.00000,246.15703
2652.00000,291.93121
2654.00000,270.09436
2656.00000,244.02730
2658.00000,243.47101
2660.00000,236.53584
2662.00000,227.71216
2664.00000,254.53682
2666.00000,274.84598
2668.00000,252.17854
2670.00000,225.77763
2672.00000,254.44341
2674.00000,253.33205
2676.00000,217.84001
2678.00000,210.09843
2680.00000,214.58150
2682.00000,209.78783
2684.00000,207.31842
2686.00000,212.01909
2688.00000,198.28093
2690.00000,165.00841
2692.00000,217.68752
2694.00000,234.30887
2696.00000,125.02703
2698.00000,214.75896
2700.00000,206.02568
2702.00000,143.64885
2704.00000,190.63676
2706.00000,201.58008
2708.00000,190.72003
2710.00000,184.53082
2712.00000,182.58226
2714.00000,180.41173
2716.00000,191.09418
2718.00000,194.98718
2720.00000,189.26808
2722.00000,181.60352
2724.00000,177.38487
2726.00000,227.43300
2728.00000,232.30367
2730.00000,159.73206
2732.00000,135.98579
2734.00000,189.53624
2736.00000,186.69566
2738.00000,170.96291
2740.00000,221.99825
2742.00000,174.90430
2744.00000,130.91245
2746.00000,146.66225
2748.00000,165.28305
2750.00000,131.97028
2752.00000,118.38708
2754.00000,119.89817
2756.00000,126.78939
2758.00000,144.11990
2760.00000,136.39212
2762.00000,128.84799
2764.00000,123.45389
2766.00000,129.14694
2768.00000,168.67865
2770.00000,135.41988
2772.00000,133.29823
2774.00000,158.44965
2776.00000,88.73367
2778.00000,101.54327
2780.00000,166.19400
2782.00000,162.46498
2784.00000,114.00939
2786.00000,179.49594
2788.00000,136.15723
2790.00000,81.23055
2792.00000,127.28349
2794.00000,130.82275
2796.00000,81.51600
2798.00000,130.97734
2800.00000,182.54785
2802.00000,95.61625
2804.00000,117.96600
2806.00000,150.96980
2808.00000,107.49168
2810.00000,92.20581
2812.00000,212.67769
2814.00000,174.98849
2816.00000,140.60323
2818.00000,207.46924
2820.00000,197.59772
2822.00000,119.21090
2824.00000,191.47354
2826.00000,216.32018
2828.00000,98.92957
2830.00000,251.49319
2832.00000,237.29883
2834.00000,170.09308
2836.00000,253.07785
2838.00000,312.67673
2840.00000,268.06415
2842.00000,313.95944
2844.00000,389.90372
2846.00000,353.69244
2848.00000,403.09448
2850.00000,431.80142
2852.00000,428.16592
2854.00000,488.10187
2856.00000,605.45276
2858.00000,573.92780
2860.00000,557.91437
2862.00000,620.94281
2864.00000,619.50623
2866.00000,580.48419
2868.00000,615.44482
2870.00000,667.89246
2872.00000,652.69873
2874.00000,635.98816
2876.00000,643.61133
2878.00000,589.34595
2880.00000,488.68292
2882.00000,469.00095
2884.00000,495.94769
2886.00000,416.13867
2888.00000,409.71829
2890.00000,554.66980
2892.00000,450.12851
2894.00000,459.98862
2896.00000,556.45184
2898.00000,557.13312
2900.00000,549.42682
2902.00000,631.10071
2904.00000,620.47986
2906.00000,586.74536
2908.00000,717.74731
2910.00000,797.00958
2912.00000,730.35736
2914.00000,722.60217
2916.00000,800.55011
2918.00000,705.02258
2920.00000,749.04742
2922.00000,816.44141
2924.00000,775.94440
2926.00000,756.81836
2928.00000,835.93536
2930.00000,833.76398
2932.00000,760.60425
2934.00000,750.07813
2936.00000,774.37134
2938.00000,732.66724
2940.00000,687.77246
2942.00000,685.11249
2944.00000,658.02777
2946.00000,602.50055
2948.00000,546.79413
2950.00000,571.09595
2952.00000,634.29895
2954.00000,517.45251
2956.00000,449.25378
2958.00000,461.49408
2960.00000,470.09860
2962.00000,477.51685
2964.00000,420.96625
2966.00000,405.29071
2968.00000,401.16122
2970.00000,344.38025
2972.00000,436.47717
2974.00000,428.12634
2976.00000,315.40930
2978.00000,299.74536
2980.00000,372.60281
2982.00000,277.11356
2984.00000,234.92229
2986.00000,307.41867
2988.00000,242.59067
2990.00000,171.78191
2992.00000,209.11055
2994.00000,214.60883
2996.00000,114.40649
2998.00000,158.52223
3000.00000,217.40422
3002.00000,156.17479
3004.00000,98.25398
3006.00000,202.19527
3008.00000,130.22020
3010.00000,65.20316
3012.00000,114.40474
3014.00000,110.64993
3016.00000,10.81234
3018.00000,54.37223
3020.00000,105.68350
3022.00000,36.07014
3024.00000,70.06341
3026.00000,164.52238
3028.00000,179.04430
3030.00000,127.14433
3032.00000,154.34659
3034.00000,267.40842
3036.00000,278.17374
3038.00000,224.63164
3040.00000,279.71106
3042.00000,424.40884
3044.00000,446.15509
3046.00000,449.46671
3048.00000,520.21222
3050.00000,563.60638
3052.00000,644.85199
3054.00000,724.02289
3056.00000,762.29791
3058.00000,767.51685
3060.00000,752.92267
3062.00000,742.96777
3064.00000,731.23749
3066.00000,687.23431
3068.00000,603.97339
3070.00000,543.18634
3072.00000,489.71646
3074.00000,436.10239
3076.00000,407.17175
3078.00000,396.48361
3080.00000,383.63962
3082.00000,315.95355
3084.00000,218.24155
3086.00000,188.48265
3088.00000,115.30283
3090.00000,170.99995
3092.00000,241.00298
3094.00000,93.06846
3096.00000,222.76614
3098.00000,208.69753
3100.00000,43.66547
3102.00000,87.23956
3104.00000,192.90096
3106.00000,61.94629
3108.00000,51.64865
3110.00000,234.29001
3112.00000,137.80687
3114.00000,66.63067
3116.00000,125.78923
3118.00000,145.66139
3120.00000,58.92517
3122.00000,124.68999
3124.00000,170.03589
3126.00000,167.83302
3128.00000,126.51768
3130.00000,-1.54278
3132.00000,126.05151
3134.00000,115.16055
3136.00000,13.72283
3138.00000,191.08325
3140.00000,53.99677
3142.00000,40.39689
3144.00000,158.21803
3146.00000,124.46989
3148.00000,124.99004
3150.00000,158.40582
3152.00000,240.19493
3154.00000,230.70795
3156.00000,25.37460
3158.00000,58.37234
3160.00000,89.14781
3162.00000,34.87612
3164.00000,53.48424
3166.00000,67.33218
3168.00000,101.38619
3170.00000,89.60712
3172.00000,39.32799
3174.00000,76.26818
3176.00000,98.16084
3178.00000,35.46280
3180.00000,11.20868
3182.00000,97.94228
3184.00000,36.83505
3186.00000,-31.56193
3188.00000,45.57218
3190.00000,141.76585
3192.00000,37.48649
3194.00000,82.24857
3196.00000,146.71236
3198.00000,99.45319
3200.00000,91.17426
