300.00000,171.20674
302.00000,146.08977
304.00000,140.71376
306.00000,131.79706
308.00000,125.98293
310.00000,126.95847
312.00000,126.43301
314.00000,143.50098
316.00000,144.20982
318.00000,167.97643
320.00000,233.52284
322.00000,230.37976
324.00000,228.94879
326.00000,211.38739
328.00000,171.44827
330.00000,166.91164
332.00000,154.92014
334.00000,173.51125
336.00000,234.82701
338.00000,304.69928
340.00000,375.33597
342.00000,492.93634
344.00000,641.63257
346.00000,731.45300
348.00000,687.14392
350.00000,562.19379
352.00000,412.12485
354.00000,291.94763
356.00000,234.66600
358.00000,218.31894
360.00000,190.18352
362.00000,152.53648
364.00000,127.03951
366.00000,111.78767
368.00000,92.85219
370.00000,87.84780
372.00000,92.17712
374.00000,100.27999
376.00000,135.39783
378.00000,176.40479
380.00000,226.07335
382.00000,251.55019
384.00000,220.34488
386.00000,223.43587
388.00000,248.52882
390.00000,252.33878
392.00000,230.97777
394.00000,213.57127
396.00000,183.20058
398.00000,153.75763
400.00000,123.22413
402.00000,83.01117
404.00000,84.64067
406.00000,88.28685
408.00000,126.29114
410.00000,223.93839
412.00000,302.36008
414.00000,379.77777
416.00000,458.67636
418.00000,570.19019
420.00000,755.15894
422.00000,962.06787
424.00000,1145.73389
426.00000,1325.63318
428.00000,1506.17896
430.00000,1633.18591
432.00000,1739.36267
434.00000,1829.44934
436.00000,1922.50037
438.00000,2038.12341
440.00000,2127.81177
442.00000,2215.81885
444.00000,2273.85889
446.00000,2258.70654
448.00000,2191.09937
450.00000,2099.11670
452.00000,1985.92419
454.00000,1856.08704
456.00000,1707.11548
458.00000,1516.50696
460.00000,1369.59473
462.00000,1264.33105
464.00000,1123.75110
466.00000,925.74988
468.00000,761.85748
470.00000,629.13068
472.00000,531.33722
474.00000,481.95535
476.00000,407.88226
478.00000,319.78406
480.00000,242.90706
482.00000,195.28279
484.00000,186.04416
486.00000,185.50371
488.00000,163.62450
490.00000,135.01639
492.00000,132.37395
494.00000,139.42728
496.00000,118.54691
498.00000,93.28844
500.00000,102.58404
502.00000,138.31789
504.00000,168.19177
506.00000,178.53510
508.00000,199.12440
510.00000,253.84505
512.00000,300.70319
514.00000,330.74771
516.00000,383.83463
518.00000,469.61600
520.00000,527.20032
522.00000,519.24005
524.00000,545.00439
526.00000,611.06305
528.00000,611.77380
530.00000,505.47757
532.00000,332.83813
534.00000,211.05978
536.00000,162.36856
538.00000,95.64525
540.00000,63.89125
542.00000,68.35877
544.00000,69.48019
546.00000,62.75095
548.00000,95.10984
550.00000,110.72672
552.00000,96.91070
554.00000,88.25188
556.00000,106.17721
558.00000,129.08492
560.00000,147.17694
562.00000,187.74359
564.00000,280.18930
566.00000,404.94351
568.00000,516.23932
570.00000,590.13232
572.00000,617.94843
574.00000,594.68054
576.00000,535.45685
578.00000,494.42059
580.00000,451.33072
582.00000,421.89194
584.00000,525.97394
586.00000,553.64526
588.00000,594.29700
590.00000,721.35675
592.00000,800.97986
594.00000,901.23346
596.00000,1022.44659
598.00000,1137.12341
600.00000,1242.88928
602.00000,1362.27087
604.00000,1507.26782
606.00000,1612.59387
608.00000,1692.18152
610.00000,1833.39026
612.00000,1961.84497
614.00000,2059.29077
616.00000,2110.67749
618.00000,2087.27954
620.00000,1971.74072
622.00000,1739.78821
624.00000,1436.66443
626.00000,1146.60815
628.00000,916.56470
630.00000,714.05243
632.00000,560.40082
634.00000,473.54852
636.00000,426.91876
638.00000,368.91537
640.00000,295.32278
642.00000,238.94443
644.00000,215.50441
646.00000,197.92433
648.00000,155.81488
650.00000,147.55949
652.00000,175.58264
654.00000,182.33580
656.00000,146.05496
658.00000,124.63667
660.00000,147.29295
662.00000,184.30560
664.00000,198.00505
666.00000,217.46019
668.00000,259.14246
670.00000,293.49554
672.00000,343.02304
674.00000,505.40167
676.00000,703.14600
678.00000,825.19067
680.00000,815.13031
682.00000,709.51251
684.00000,603.00409
686.00000,448.70032
688.00000,282.54895
690.00000,169.91089
692.00000,91.08572
694.00000,77.11154
696.00000,76.55466
698.00000,70.21728
700.00000,77.92939
702.00000,53.52077
704.00000,88.78407
706.00000,146.21812
708.00000,168.23093
710.00000,221.53044
712.00000,272.54691
714.00000,352.21579
716.00000,428.33194
718.00000,436.91562
720.00000,458.19528
722.00000,492.99884
724.00000,544.34698
726.00000,600.02716
728.00000,605.73431
730.00000,553.81183
732.00000,462.58444
734.00000,390.39441
736.00000,385.93060
738.00000,416.45129
740.00000,475.86499
742.00000,577.71185
744.00000,674.73712
746.00000,671.08301
748.00000,602.32794
750.00000,477.24884
752.00000,349.10675
754.00000,285.89792
756.00000,251.82454
758.00000,219.68474
760.00000,186.35561
762.00000,159.70551
764.00000,141.22882
766.00000,117.38181
768.00000,85.21869
770.00000,77.21584
772.00000,102.03606
774.00000,90.98705
776.00000,79.27098
778.00000,72.88522
780.00000,60.83323
782.00000,64.92269
784.00000,98.30338
786.00000,92.50383
788.00000,79.49152
790.00000,125.55782
792.00000,139.83482
794.00000,105.83024
796.00000,93.61533
798.00000,129.22852
800.00000,156.12454
802.00000,183.21265
804.00000,205.48257
806.00000,258.64133
808.00000,343.58420
810.00000,360.93988
812.00000,413.99460
814.00000,428.54678
816.00000,333.92114
818.00000,235.21678
820.00000,186.53069
822.00000,166.95551
824.00000,147.05045
826.00000,118.85892
828.00000,93.53217
830.00000,110.34930
832.00000,134.24074
834.00000,120.49937
836.00000,93.69245
838.00000,112.10280
840.00000,108.84021
842.00000,88.54284
844.00000,106.96991
846.00000,124.05830
848.00000,113.52918
850.00000,117.28882
852.00000,122.50565
854.00000,75.47625
856.00000,78.45741
858.00000,93.73672
860.00000,73.76836
862.00000,63.80663
864.00000,122.95758
866.00000,85.78002
868.00000,87.22575
870.00000,136.74603
872.00000,41.96844
874.00000,31.58821
876.00000,34.05056
878.00000,47.14191
880.00000,100.77454
882.00000,64.39358
884.00000,71.70410
886.00000,100.11729
888.00000,120.36256
890.00000,169.42813
892.00000,142.42453
894.00000,113.61589
896.00000,118.06166
898.00000,119.86116
900.00000,114.37307
902.00000,93.99945
904.00000,73.88147
906.00000,65.79152
908.00000,66.57624
910.00000,77.51353
912.00000,77.48022
914.00000,67.41895
916.00000,55.29196
918.00000,31.05528
920.00000,15.01849
922.00000,25.32823
924.00000,54.45841
926.00000,68.44356
928.00000,40.44674
930.00000,27.07385
932.00000,46.07882
934.00000,68.36997
936.00000,76.68115
938.00000,73.18327
940.00000,81.38640
942.00000,90.49924
944.00000,88.87202
946.00000,140.51817
948.00000,174.82248
950.00000,197.84625
952.00000,254.75021
954.00000,319.32895
956.00000,399.77472
958.00000,475.57806
960.00000,559.67078
962.00000,667.62970
964.00000,717.97687
966.00000,720.31323
968.00000,709.98700
970.00000,682.60065
972.00000,606.49182
974.00000,518.43866
976.00000,428.19220
978.00000,352.09525
980.00000,317.32068
982.00000,310.04971
984.00000,299.26999
986.00000,324.84866
988.00000,400.73532
990.00000,474.70456
992.00000,632.98077
994.00000,873.94604
996.00000,1210.62329
998.00000,1645.86755
1000.00000,1998.92871
1002.00000,2033.43140
1004.00000,1728.89417
1006.00000,1244.47351
1008.00000,767.28485
1010.00000,444.34500
1012.00000,280.58368
1014.00000,204.41821
1016.00000,163.15140
1018.00000,165.96378
1020.00000,198.52200
1022.00000,243.27086
1024.00000,314.77496
1026.00000,436.63989
1028.00000,550.90906
1030.00000,644.02264
1032.00000,677.87750
1034.00000,614.39771
1036.00000,521.01697
1038.00000,486.26883
1040.00000,436.18100
1042.00000,339.86963
1044.00000,318.93451
1046.00000,341.68091
1048.00000,335.43961
1050.00000,334.75436
1052.00000,406.63745
1054.00000,490.39496
1056.00000,573.50830
1058.00000,735.75903
1060.00000,920.22845
1062.00000,930.22980
1064.00000,855.78314
1066.00000,777.96289
1068.00000,675.98395
1070.00000,537.33160
1072.00000,466.57196
1074.00000,456.02155
1076.00000,445.85742
1078.00000,436.41043
1080.00000,531.44067
1082.00000,816.42743
1084.00000,1036.07056
1086.00000,1086.57654
1088.00000,1001.78650
1090.00000,694.13708
1092.00000,460.52051
1094.00000,346.00104
1096.00000,285.94482
1098.00000,305.23428
1100.00000,324.38412
1102.00000,382.91809
1104.00000,486.27695
1106.00000,592.94635
1108.00000,692.07404
1110.00000,685.18811
1112.00000,580.94867
1114.00000,458.68402
1116.00000,367.01187
1118.00000,297.04330
1120.00000,244.08478
1122.00000,198.75119
1124.00000,146.93144
1126.00000,89.17026
1128.00000,56.45570
1130.00000,65.69010
1132.00000,85.84878
1134.00000,76.19488
1136.00000,77.79876
1138.00000,121.60535
1140.00000,149.67172
1142.00000,137.54051
1144.00000,181.83792
1146.00000,216.55833
1148.00000,314.25464
1150.00000,494.23364
1152.00000,659.12823
1154.00000,862.57654
1156.00000,1113.31775
1158.00000,1337.02295
1160.00000,1435.87292
1162.00000,1375.18298
1164.00000,1215.06091
1166.00000,987.68018
1168.00000,762.01343
1170.00000,622.76691
1172.00000,528.51294
1174.00000,492.10437
1176.00000,515.29712
1178.00000,550.71466
1180.00000,558.57501
1182.00000,616.98682
1184.00000,622.17017
1186.00000,553.97772
1188.00000,534.16217
1190.00000,521.65479
1192.00000,531.79156
1194.00000,545.30267
1196.00000,539.28766
1198.00000,548.62531
1200.00000,562.45581
1202.00000,562.99701
1204.00000,546.80206
1206.00000,499.47006
1208.00000,376.45010
1210.00000,256.41736
1212.00000,179.31720
1214.00000,151.40529
1216.00000,201.00681
1218.00000,293.14655
1220.00000,448.72580
1222.00000,727.06201
1224.00000,1145.73560
1226.00000,1609.57861
1228.00000,1955.80481
1230.00000,2067.77173
1232.00000,1913.85950
1234.00000,1558.01318
1236.00000,1190.14172
1238.00000,1014.70343
1240.00000,997.22302
1242.00000,949.58203
1244.00000,861.47937
1246.00000,686.05713
1248.00000,497.98462
1250.00000,406.19852
1252.00000,386.85602
1254.00000,333.77686
1256.00000,386.72885
1258.00000,487.79257
1260.00000,457.03412
1262.00000,484.12634
1264.00000,494.04169
1266.00000,484.24924
1268.00000,557.73163
1270.00000,771.83203
1272.00000,1098.81860
1274.00000,1488.56824
1276.00000,1888.92419
1278.00000,2259.00708
1280.00000,2550.26245
1282.00000,2589.77710
1284.00000,2364.83228
1286.00000,2002.70593
1288.00000,1611.65125
1290.00000,1221.57031
1292.00000,900.00195
1294.00000,664.63257
1296.00000,487.68100
1298.00000,375.08670
1300.00000,264.66705
1302.00000,186.63925
1304.00000,191.08192
1306.00000,231.65547
1308.00000,223.60248
1310.00000,251.84172
1312.00000,336.72006
1314.00000,391.64941
1316.00000,402.68979
1318.00000,442.10602
1320.00000,480.35919
1322.00000,456.55838
1324.00000,433.07748
1326.00000,574.38031
1328.00000,606.18427
1330.00000,529.70856
1332.00000,554.01074
1334.00000,520.12610
1336.00000,499.11218
1338.00000,510.79449
1340.00000,556.14612
1342.00000,691.14624
1344.00000,901.46906
1346.00000,1161.13538
1348.00000,1503.65454
1350.00000,1989.52832
1352.00000,2616.68140
1354.00000,3297.72827
1356.00000,3752.30713
1358.00000,3866.99072
1360.00000,3752.15698
1362.00000,3271.36621
1364.00000,2742.19165
1366.00000,2374.90332
1368.00000,2146.53809
1370.00000,2095.80859
1372.00000,2216.17480
1374.00000,2314.45117
1376.00000,2214.19141
1378.00000,1965.77490
1380.00000,1786.89075
1382.00000,1637.80334
1384.00000,1579.13013
1386.00000,1714.65686
1388.00000,1922.22986
1390.00000,2122.75781
1392.00000,2063.87061
1394.00000,1748.77734
1396.00000,1442.54053
1398.00000,1018.63354
1400.00000,704.54083
1402.00000,494.24420
1404.00000,272.61218
1406.00000,211.50697
1408.00000,160.70456
1410.00000,108.71221
1412.00000,85.69681
1414.00000,50.17739
1416.00000,29.70965
1418.00000,18.85511
1420.00000,18.94812
1422.00000,23.88713
1424.00000,5.73156
1426.00000,17.59603
1428.00000,89.43098
1430.00000,159.65604
1432.00000,181.04527
1434.00000,289.03647
1436.00000,406.68710
1438.00000,545.71130
1440.00000,747.81049
1442.00000,931.50568
1444.00000,1190.19214
1446.00000,1414.96826
1448.00000,1544.56494
1450.00000,1652.65747
1452.00000,1684.17566
1454.00000,1728.03296
1456.00000,1839.79004
1458.00000,1941.72632
1460.00000,1926.93396
1462.00000,1913.67773
1464.00000,1854.34277
1466.00000,1703.05493
1468.00000,1565.74390
1470.00000,1554.67651
1472.00000,1529.97778
1474.00000,1677.60376
1476.00000,2068.68286
1478.00000,2322.88403
1480.00000,2699.77856
1482.00000,2965.65356
1484.00000,2988.44312
1486.00000,2924.27051
1488.00000,2623.15625
1490.00000,2302.70142
1492.00000,2035.20825
1494.00000,1745.11572
1496.00000,1445.15588
1498.00000,1139.51807
1500.00000,851.13763
1502.00000,646.80408
1504.00000,518.41547
1506.00000,303.29834
1508.00000,228.32408
1510.00000,236.80638
1512.00000,157.80104
1514.00000,78.52566
1516.00000,36.45979
1518.00000,16.90802
1520.00000,42.91309
1522.00000,104.53951
1524.00000,68.01625
1526.00000,100.03552
1528.00000,144.72183
1530.00000,111.68149
1532.00000,134.70657
1534.00000,190.86311
1536.00000,256.15314
1538.00000,351.62878
1540.00000,479.32169
1542.00000,586.37695
1544.00000,804.12738
1546.00000,1055.07263
1548.00000,1301.36572
1550.00000,1641.37439
1552.00000,1719.37659
1554.00000,1729.44458
1556.00000,1755.04956
1558.00000,1662.21960
1560.00000,1622.93823
1562.00000,1618.05371
1564.00000,1738.19336
1566.00000,1981.28467
1568.00000,2200.30688
1570.00000,2623.24634
1572.00000,3123.48364
1574.00000,3663.45264
1576.00000,4255.39111
1578.00000,4575.46680
1580.00000,4664.67285
1582.00000,4420.35498
1584.00000,3852.26270
1586.00000,3269.44385
1588.00000,2750.78003
1590.00000,2314.87231
1592.00000,2012.84229
1594.00000,1842.08459
1596.00000,1673.87305
1598.00000,1569.97778
1600.00000,1617.55396
1602.00000,1690.82227
1604.00000,1563.86646
1606.00000,1395.34692
1608.00000,1127.86206
1610.00000,849.92529
1612.00000,686.63495
1614.00000,463.10394
1616.00000,325.41611
1618.00000,308.64725
1620.00000,298.47269
1622.00000,226.21344
1624.00000,195.34244
1626.00000,163.46674
1628.00000,139.95769
1630.00000,141.87553
1632.00000,73.64118
1634.00000,100.94423
1636.00000,108.32115
1638.00000,57.05062
1640.00000,106.65688
1642.00000,44.83510
1644.00000,-16.59505
1646.00000,16.79782
1648.00000,66.92297
1650.00000,51.70232
1652.00000,38.91116
1654.00000,90.69241
1656.00000,107.24953
1658.00000,9.07764
1660.00000,96.67444
1662.00000,115.80167
1664.00000,93.32996
1666.00000,172.70905
1668.00000,96.10362
1670.00000,135.39650
1672.00000,147.80292
1674.00000,72.35965
1676.00000,134.46101
1678.00000,139.90402
1680.00000,165.52211
1682.00000,156.98831
1684.00000,57.77402
1686.00000,80.35201
1688.00000,122.82736
1690.00000,102.14725
1692.00000,102.93982
1694.00000,177.63388
1696.00000,89.72593
1698.00000,141.17149
1700.00000,206.23253
1702.00000,96.58205
1704.00000,168.57512
1706.00000,136.48453
1708.00000,146.49184
1710.00000,221.25679
1712.00000,139.97289
1714.00000,211.28696
1716.00000,270.61212
1718.00000,212.26442
1720.00000,167.79265
1722.00000,243.93126
1724.00000,274.04327
1726.00000,265.19446
1728.00000,264.97580
1730.00000,239.99390
1732.00000,200.34177
1734.00000,230.10385
1736.00000,195.36461
1738.00000,106.35592
1740.00000,257.10495
1742.00000,231.39607
1744.00000,139.71690
1746.00000,155.37193
1748.00000,170.32144
1750.00000,157.98087
1752.00000,132.79800
1754.00000,158.23267
1756.00000,202.86772
1758.00000,157.50755
1760.00000,228.97650
1762.00000,198.79121
1764.00000,116.75452
1766.00000,229.46233
1768.00000,156.97311
1770.00000,137.74286
1772.00000,188.50156
1774.00000,174.90468
1776.00000,177.44183
1778.00000,140.43762
1780.00000,144.26051
1782.00000,167.87817
1784.00000,118.67897
1786.00000,123.33056
1788.00000,166.02832
1790.00000,179.15584
1792.00000,126.51870
1794.00000,49.67642
1796.00000,74.94929
1798.00000,106.51479
1800.00000,33.81235
1802.00000,-7.94384
1804.00000,230.13153
1806.00000,148.35719
1808.00000,26.79735
1810.00000,148.53181
1812.00000,25.52265
1814.00000,108.02348
1816.00000,194.49637
1818.00000,110.84007
1820.00000,71.17361
1822.00000,163.34987
1824.00000,130.49309
1826.00000,81.62670
1828.00000,129.65016
1830.00000,102.92408
1832.00000,187.02499
1834.00000,194.42554
1836.00000,129.40385
1838.00000,192.39087
1840.00000,239.30594
1842.00000,169.41779
1844.00000,129.83498
1846.00000,176.08188
1848.00000,144.22490
1850.00000,138.19061
1852.00000,149.47685
1854.00000,119.46859
1856.00000,82.98280
1858.00000,164.03044
1860.00000,271.18579
1862.00000,330.20944
1864.00000,363.27475
1866.00000,358.14862
1868.00000,159.84694
1870.00000,346.31763
1872.00000,472.03751
1874.00000,74.41629
1876.00000,378.09573
1878.00000,332.84265
1880.00000,94.61150
1882.00000,248.45465
1884.00000,384.00021
1886.00000,151.51135
1888.00000,284.29617
1890.00000,463.84116
1892.00000,156.40167
1894.00000,384.62051
1896.00000,382.75870
1898.00000,291.22839
1900.00000,421.75711
1902.00000,399.46613
1904.00000,344.74353
1906.00000,385.51047
1908.00000,378.05460
1910.00000,307.20749
1912.00000,496.91156
1914.00000,360.98608
1916.00000,302.03043
1918.00000,471.51648
1920.00000,303.64212
1922.00000,339.64322
1924.00000,337.93280
1926.00000,249.99625
1928.00000,313.09399
1930.00000,386.71423
1932.00000,269.58435
1934.00000,308.30908
1936.00000,457.60803
1938.00000,261.07355
1940.00000,231.62335
1942.00000,175.08319
1944.00000,119.22794
1946.00000,244.39883
1948.00000,293.50400
1950.00000,294.96069
1952.00000,285.04703
1954.00000,194.86208
1956.00000,75.18430
1958.00000,279.03912
1960.00000,212.69446
1962.00000,28.40427
1964.00000,148.81921
1966.00000,139.32430
1968.00000,162.92802
1970.00000,123.35679
1972.00000,34.70773
1974.00000,107.50446
1976.00000,127.14946
1978.00000,61.64214
1980.00000,51.64093
1982.00000,128.41330
1984.00000,131.75256
1986.00000,184.23166
1988.00000,160.62656
1990.00000,72.21418
1992.00000,114.23762
1994.00000,146.31917
1996.00000,152.16626
1998.00000,118.58431
2000.00000,17.77327
2002.00000,24.04596
2004.00000,35.24207
2006.00000,35.49103
2008.00000,30.40742
2010.00000,32.55684
2012.00000,55.83785
2014.00000,64.50220
2016.00000,32.29456
2018.00000,41.37838
2020.00000,58.71341
2022.00000,63.57846
2024.00000,68.55627
2026.00000,71.80291
2028.00000,70.36597
2030.00000,79.38950
2032.00000,88.91220
2034.00000,75.27811
2036.00000,78.04980
2038.00000,116.52882
2040.00000,132.55679
2042.00000,97.08411
2044.00000,102.49187
2046.00000,119.29858
2048.00000,112.59088
2050.00000,99.32309
2052.00000,113.30266
2054.00000,120.32955
2056.00000,124.83494
2058.00000,139.33981
2060.00000,153.33694
2062.00000,147.20598
2064.00000,143.03944
2066.00000,147.70103
2068.00000,152.99751
2070.00000,165.91774
2072.00000,204.28419
2074.00000,166.85309
2076.00000,105.97524
2078.00000,157.88737
2080.00000,161.90340
2082.00000,205.25995
2084.00000,212.22917
2086.00000,117.86558
2088.00000,149.03972
2090.00000,217.40164
2092.00000,188.66364
2094.00000,139.84314
2096.00000,218.86131
2098.00000,203.89116
2100.00000,200.05702
2102.00000,191.83064
2104.00000,105.94292
2106.00000,155.89029
2108.00000,193.52394
2110.00000,194.83772
2112.00000,211.47568
2114.00000,195.52925
2116.00000,148.09370
2118.00000,158.22401
2120.00000,197.75902
2122.00000,166.65967
2124.00000,142.81029
2126.00000,180.52127
2128.00000,199.35974
2130.00000,169.48749
2132.00000,205.14879
2134.00000,181.80360
2136.00000,136.18974
2138.00000,169.02997
2140.00000,243.06740
2142.00000,190.55859
2144.00000,173.85342
2146.00000,223.86563
2148.00000,218.94637
2150.00000,182.94160
2152.00000,206.05872
2154.00000,235.74069
2156.00000,217.08131
2158.00000,213.48373
2160.00000,259.26920
2162.00000,245.34776
2164.00000,207.46738
2166.00000,249.60493
2168.00000,249.38445
2170.00000,225.16238
2172.00000,216.67188
2174.00000,226.55286
2176.00000,242.26443
2178.00000,268.77481
2180.00000,263.47061
2182.00000,225.05074
2184.00000,212.37962
2186.00000,240.29214
2188.00000,239.06432
2190.00000,207.34468
2192.00000,208.87311
2194.00000,256.44638
2196.00000,247.85025
2198.00000,190.31519
2200.00000,173.65063
2202.00000,226.01466
2204.00000,222.91669
2206.00000,192.53302
2208.00000,191.13367
2210.00000,204.36269
2212.00000,189.61554
2214.00000,220.78995
2216.00000,245.74959
2218.00000,226.28011
2220.00000,243.61333
2222.00000,248.62155
2224.00000,205.39137
2226.00000,193.75154
2228.00000,257.65887
2230.00000,213.10857
2232.00000,171.61656
2234.00000,220.86041
2236.00000,266.92410
2238.00000,193.49081
2240.00000,224.99040
2242.00000,247.55743
2244.00000,201.72113
2246.00000,229.33878
2248.00000,214.42671
2250.00000,196.49014
2252.00000,215.24634
2254.00000,233.51067
2256.00000,208.72041
2258.00000,176.63617
2260.00000,191.97997
2262.00000,236.92255
2264.00000,236.65932
2266.00000,217.53969
2268.00000,222.35069
2270.00000,225.77472
2272.00000,194.54005
2274.00000,192.19102
2276.00000,212.47734
2278.00000,204.70015
2280.00000,178.87526
2282.00000,206.50163
2284.00000,214.57095
2286.00000,184.28535
2288.00000,194.59163
2290.00000,265.00433
2292.00000,206.57979
2294.00000,161.38972
2296.00000,181.81877
2298.00000,190.13782
2300.00000,188.83490
2302.00000,219.26033
2304.00000,239.87955
2306.00000,206.31221
2308.00000,168.61565
2310.00000,227.81213
2312.00000,222.93573
2314.00000,161.95709
2316.00000,198.69040
2318.00000,266.85165
2320.00000,201.19623
2322.00000,164.92062
2324.00000,240.95772
2326.00000,203.86830
2328.00000,161.17844
2330.00000,206.07616
2332.00000,241.26120
2334.00000,169.22873
2336.00000,170.51312
2338.00000,198.37122
2340.00000,198.84329
2342.00000,185.63477
2344.00000,178.58949
2346.00000,173.84201
2348.00000,178.52464
2350.00000,200.77814
2352.00000,219.29260
2354.00000,187.58788
2356.00000,199.86195
2358.00000,217.87210
2360.00000,171.08717
2362.00000,170.72000
2364.00000,184.93401
2366.00000,171.50822
2368.00000,170.72147
2370.00000,215.56400
2372.00000,147.18752
2374.00000,166.51709
2376.00000,256.92090
2378.00000,216.32378
2380.00000,189.48239
2382.00000,236.67570
2384.00000,226.93138
2386.00000,171.91176
2388.00000,271.10205
2390.00000,232.00517
2392.00000,234.95477
2394.00000,311.58603
2396.00000,236.23141
2398.00000,215.67551
2400.00000,226.29991
2402.00000,221.48718
2404.00000,223.74983
2406.00000,235.34673
2408.00000,173.44199
2410.00000,188.51811
2412.00000,268.20734
2414.00000,207.94531
2416.00000,217.57675
2418.00000,217.96935
2420.00000,192.74536
2422.00000,213.42998
2424.00000,192.10518
2426.00000,144.13263
2428.00000,192.11319
2430.00000,275.87225
2432.00000,188.95384
2434.00000,184.32864
2436.00000,229.31441
2438.00000,217.82797
2440.00000,190.46895
2442.00000,237.63818
2444.00000,232.97049
2446.00000,172.96463
2448.00000,163.85461
2450.00000,215.24214
2452.00000,200.24507
2454.00000,167.27916
2456.00000,186.54340
2458.00000,216.90370
2460.00000,200.37552
2462.00000,176.23410
2464.00000,190.48386
2466.00000,213.31413
2468.00000,178.61560
2470.00000,207.04877
2472.00000,202.58665
2474.00000,118.30703
2476.00000,118.60114
2478.00000,188.06741
2480.00000,170.19914
2482.00000,146.61041
2484.00000,226.02354
2486.00000,147.59457
2488.00000,123.37604
2490.00000,212.41675
2492.00000,241.94536
2494.00000,151.41333
2496.00000,252.83318
2498.00000,264.34473
2500.00000,153.52794
2502.00000,236.39299
2504.00000,261.45084
2506.00000,189.44809
2508.00000,196.07664
2510.00000,293.57019
2512.00000,224.03661
2514.00000,211.26341
2516.00000,210.38823
2518.00000,163.00475
2520.00000,185.33418
2522.00000,207.95395
2524.00000,205.56593
2526.00000,198.38489
2528.00000,188.94737
2530.00000,153.39474
2532.00000,180.81062
2534.00000,191.62436
2536.00000,155.72955
2538.00000,196.28490
2540.00000,191.48946
2542.00000,155.98026
2544.00000,156.09100
2546.00000,175.29797
2548.00000,131.33440
2550.00000,122.28122
2552.00000,181.54312
2554.00000,217.10745
2556.00000,164.29175
2558.00000,197.81258
2560.00000,214.30571
2562.00000,160.15901
2564.00000,154.74850
2566.00000,137.82542
2568.00000,116.59386
2570.00000,136.87178
2572.00000,163.67119
2574.00000,99.22364
2576.00000,136.31621
2578.00000,147.21489
2580.00000,87.81323
2582.00000,169.77277
2584.00000,206.93469
2586.00000,200.24995
2588.00000,201.58788
2590.00000,188.58229
2592.00000,142.80202
2594.00000,192.64276
2596.00000,211.62474
2598.00000,154.34981
2600.00000,228.12267
2602.00000,185.95816
2604.00000,129.57706
2606.00000,191.11488
2608.00000,252.26630
2610.00000,159.61427
2612.00000,159.27818
2614.00000,208.85805
2616.00000,155.33038
2618.00000,154.15178
2620.00000,176.01263
2622.00000,194.63548
2624.00000,145.35010
2626.00000,38.30979
2628.00000,173.18863
2630.00000,146.61203
2632.00000,35.20093
2634.00000,150.72179
2636.00000,116.43746
2638.00000,124.09868
2640.00000,170.55315
2642.00000,145.31230
2644.00000,117.52237
2646.00000,144.03905
2648.00000,175.52965
2650.00000,199.21501
2652.00000,226.46576
2654.00000,181.15538
2656.00000,151.68803
2658.00000,155.98851
2660.00000,161.43150
2662.00000,185.74519
2664.00000,202.00429
2666.00000,191.26042
2668.00000,146.60451
2670.00000,108.73894
2672.00000,174.47612
2674.00000,150.76501
2676.00000,99.77658
2678.00000,168.55394
2680.00000,188.34955
2682.00000,206.24176
2684.00000,207.08101
2686.00000,184.28560
2688.00000,208.30328
2690.00000,249.28758
2692.00000,164.25807
2694.00000,122.40946
2696.00000,280.40356
2698.00000,247.83789
2700.00000,175.49228
2702.00000,159.46080
2704.00000,153.80247
2706.00000,162.49605
2708.00000,236.88110
2710.00000,242.26370
2712.00000,204.01735
2714.00000,256.28015
2716.00000,238.18567
2718.00000,296.00574
2720.00000,343.32019
2722.00000,237.23749
2724.00000,171.62070
2726.00000,261.15152
2728.00000,285.62241
2730.00000,216.23569
2732.00000,260.72531
2734.00000,196.04674
2736.00000,190.61809
2738.00000,236.52600
2740.00000,197.74492
2742.00000,203.32135
2744.00000,91.60489
2746.00000,109.89895
2748.00000,253.12537
2750.00000,94.20306
2752.00000,114.71094
2754.00000,144.01932
2756.00000,68.38462
2758.00000,89.31406
2760.00000,151.22760
2762.00000,128.97040
2764.00000,101.52122
2766.00000,142.00621
2768.00000,124.39465
2770.00000,75.58925
2772.00000,49.02077
2774.00000,52.26724
2776.00000,64.85577
2778.00000,106.83835
2780.00000,197.62053
2782.00000,159.65558
2784.00000,0.09825
2786.00000,107.26956
2788.00000,92.38622
2790.00000,5.63625
2792.00000,70.60506
2794.00000,168.03345
2796.00000,56.67136
2798.00000,61.51554
2800.00000,172.18823
2802.00000,103.54213
2804.00000,63.39600
2806.00000,137.31702
2808.00000,114.33271
2810.00000,24.24614
2812.00000,202.97716
2814.00000,208.32098
2816.00000,107.00414
2818.00000,116.54636
2820.00000,182.23582
2822.00000,130.78955
2824.00000,163.59433
2826.00000,159.66373
2828.00000,71.03825
2830.00000,268.56699
2832.00000,245.33928
2834.00000,151.66678
2836.00000,266.82144
2838.00000,397.93433
2840.00000,327.86880
2842.00000,461.32962
2844.00000,647.57599
2846.00000,584.01318
2848.00000,760.74774
2850.00000,868.73907
2852.00000,891.79749
2854.00000,995.48438
2856.00000,1089.42627
2858.00000,1010.73993
2860.00000,1015.46313
2862.00000,1166.49292
2864.00000,1233.37183
2866.00000,1205.04675
2868.00000,1250.10132
2870.00000,1244.81592
2872.00000,1166.40027
2874.00000,1305.46704
2876.00000,1332.94678
2878.00000,1539.77075
2880.00000,1774.96436
2882.00000,1599.23938
2884.00000,1849.61914
2886.00000,2033.99695
2888.00000,2010.42322
2890.00000,2092.62012
2892.00000,2154.57715
2894.00000,2246.78418
2896.00000,2353.98535
2898.00000,2370.83569
2900.00000,2300.31836
2902.00000,2421.18677
2904.00000,2492.82666
2906.00000,2395.16455
2908.00000,2343.96240
2910.00000,2466.31030
2912.00000,2464.97559
2914.00000,2351.30225
2916.00000,2350.91577
2918.00000,2475.25806
2920.00000,2443.60205
2922.00000,2360.42334
2924.00000,2345.92725
2926.00000,2322.92554
2928.00000,2252.64917
2930.00000,2204.95752
2932.00000,2233.61475
2934.00000,2267.35205
2936.00000,2156.82861
2938.00000,1988.42188
2940.00000,1999.95898
2942.00000,1986.71948
2944.00000,1634.29407
2946.00000,1629.96924
2948.00000,1537.08630
2950.00000,1331.21936
2952.00000,1343.78735
2954.00000,1241.34082
2956.00000,1203.14307
2958.00000,1199.83459
2960.00000,1102.48645
2962.00000,993.74115
2964.00000,1007.53802
2966.00000,920.58191
2968.00000,852.50958
2970.00000,952.22290
2972.00000,668.44373
2974.00000,646.22675
2976.00000,671.30951
2978.00000,432.92972
2980.00000,489.54822
2982.00000,344.45782
2984.00000,244.73851
2986.00000,274.96671
2988.00000,122.69499
2990.00000,170.76810
2992.00000,154.16539
2994.00000,110.93583
2996.00000,207.24028
2998.00000,158.35895
3000.00000,145.32243
3002.00000,75.03220
3004.00000,10.36004
3006.00000,191.23055
3008.00000,121.79881
3010.00000,25.39786
3012.00000,81.43927
3014.00000,118.27455
3016.00000,69.33435
3018.00000,168.32109
3020.00000,217.39763
3022.00000,137.95851
3024.00000,288.44666
3026.00000,386.29013
3028.00000,357.38846
3030.00000,411.19958
3032.00000,684.73553
3034.00000,891.02899
3036.00000,792.43079
3038.00000,830.86298
3040.00000,1181.50671
3042.00000,1141.93640
3044.00000,1141.92639
3046.00000,1422.57031
3048.00000,1582.86743
3050.00000,1383.38867
3052.00000,1791.52441
3054.00000,1889.56140
3056.00000,1674.91113
3058.00000,1862.45886
3060.00000,1914.41479
3062.00000,1832.39966
3064.00000,1815.12915
3066.00000,1766.14087
3068.00000,1466.28638
3070.00000,1396.34827
3072.00000,1353.85754
3074.00000,1147.63220
3076.00000,956.08636
3078.00000,900.94031
3080.00000,805.89941
3082.00000,666.97577
3084.00000,614.95557
3086.00000,620.91016
3088.00000,441.38293
3090.00000,334.61981
3092.00000,432.62766
3094.00000,471.75299
3096.00000,372.76102
3098.00000,422.91635
3100.00000,320.91800
3102.00000,11.79736
3104.00000,317.02798
3106.00000,242.75740
3108.00000,104.03951
3110.00000,299.05148
3112.00000,306.86435
3114.00000,307.62265
3116.00000,295.38065
3118.00000,232.96596
3120.00000,190.94937
3122.00000,228.24522
3124.00000,225.25494
3126.00000,81.22620
3128.00000,10.15701
3130.00000,290.41446
3132.00000,340.45502
3134.00000,353.12347
3136.00000,455.48175
3138.00000,394.01672
3140.00000,285.54117
3142.00000,383.96021
3144.00000,358.73645
3146.00000,169.40823
3148.00000,513.76550
3150.00000,563.33508
3152.00000,275.58585
3154.00000,283.04807
3156.00000,630.16187
3158.00000,186.47658
3160.00000,259.56912
3162.00000,508.52878
3164.00000,4.09909
3166.00000,251.00862
3168.00000,365.27985
3170.00000,150.09810
3172.00000,225.89897
3174.00000,665.26721
3176.00000,429.13019
3178.00000,198.29305
3180.00000,407.07751
3182.00000,549.83710
3184.00000,458.94418
3186.00000,375.75955
3188.00000,376.79041
3190.00000,356.34381
3192.00000,299.41849
3194.00000,376.46194
3196.00000,372.17880
3198.00000,270.46899
3200.00000,333.10910
