300.00000,123.17294
302.00000,90.50106
304.00000,68.25400
306.00000,68.32539
308.00000,79.53391
310.00000,87.15997
312.00000,91.63031
314.00000,106.48605
316.00000,129.35608
318.00000,153.62073
320.00000,172.75740
322.00000,183.99893
324.00000,210.43353
326.00000,229.56825
328.00000,230.33141
330.00000,235.90302
332.00000,234.24973
334.00000,235.28993
336.00000,254.01657
338.00000,299.31253
340.00000,372.00870
342.00000,450.81412
344.00000,511.72882
346.00000,547.76208
348.00000,545.59589
350.00000,453.86417
352.00000,348.53177
354.00000,283.44858
356.00000,246.63222
358.00000,218.69589
360.00000,199.76248
362.00000,179.99809
364.00000,162.70963
366.00000,159.36783
368.00000,148.72757
370.00000,141.58913
372.00000,139.48033
374.00000,139.17413
376.00000,152.61780
378.00000,171.33847
380.00000,199.64566
382.00000,235.28589
384.00000,260.86353
386.00000,270.39447
388.00000,283.14499
390.00000,298.88925
392.00000,304.98218
394.00000,303.68475
396.00000,300.47449
398.00000,300.42108
400.00000,312.30377
402.00000,338.34763
404.00000,360.33963
406.00000,385.65201
408.00000,430.12061
410.00000,497.52628
412.00000,574.98511
414.00000,653.00836
416.00000,742.36969
418.00000,858.93713
420.00000,1003.12714
422.00000,1154.91138
424.00000,1310.64526
426.00000,1482.65247
428.00000,1653.41394
430.00000,1774.80933
432.00000,1877.87695
434.00000,1979.46899
436.00000,2085.06543
438.00000,2198.83960
440.00000,2308.20654
442.00000,2381.64111
444.00000,2408.56787
446.00000,2384.81006
448.00000,2306.45923
450.00000,2220.63428
452.00000,2115.27954
454.00000,1969.40247
456.00000,1784.07092
458.00000,1566.47351
460.00000,1378.26428
462.00000,1226.73999
464.00000,1078.68860
466.00000,923.92926
468.00000,779.16895
470.00000,627.07037
472.00000,480.72250
474.00000,380.92892
476.00000,318.52097
478.00000,249.50063
480.00000,186.72940
482.00000,157.85239
484.00000,143.19067
486.00000,111.27699
488.00000,79.99697
490.00000,70.70106
492.00000,78.48058
494.00000,85.82081
496.00000,84.68729
498.00000,80.28436
500.00000,85.17981
502.00000,107.00211
504.00000,132.64549
506.00000,130.65703
508.00000,129.53671
510.00000,177.60834
512.00000,234.62129
514.00000,242.17004
516.00000,243.17058
518.00000,286.47049
520.00000,343.84576
522.00000,398.55615
524.00000,446.42972
526.00000,463.07422
528.00000,427.48022
530.00000,363.34836
532.00000,279.06622
534.00000,196.92769
536.00000,141.10013
538.00000,113.59904
540.00000,95.32865
542.00000,85.02169
544.00000,81.10578
546.00000,79.91404
548.00000,87.95973
550.00000,105.32644
552.00000,123.76855
554.00000,135.53725
556.00000,144.64542
558.00000,169.13428
560.00000,207.69351
562.00000,260.63943
564.00000,328.34500
566.00000,401.97388
568.00000,497.59671
570.00000,585.57727
572.00000,614.34888
574.00000,581.55298
576.00000,570.56720
578.00000,582.80994
580.00000,596.73352
582.00000,625.71509
584.00000,697.02936
586.00000,751.28058
588.00000,822.08606
590.00000,933.66022
592.00000,1034.66589
594.00000,1123.77454
596.00000,1238.74695
598.00000,1368.75903
600.00000,1482.42224
602.00000,1588.80896
604.00000,1665.20349
606.00000,1747.30420
608.00000,1830.28674
610.00000,1868.26025
612.00000,1925.89832
614.00000,1965.99548
616.00000,1951.00269
618.00000,1879.75964
620.00000,1746.79236
622.00000,1536.77954
624.00000,1284.52771
626.00000,1046.05981
628.00000,845.47064
630.00000,663.77655
632.00000,549.82440
634.00000,482.53391
636.00000,402.33310
638.00000,322.50174
640.00000,282.71671
642.00000,225.53825
644.00000,139.49666
646.00000,98.79845
648.00000,107.97786
650.00000,137.00887
652.00000,133.78069
654.00000,93.80721
656.00000,83.79189
658.00000,93.35459
660.00000,94.58672
662.00000,98.56384
664.00000,123.27769
666.00000,124.28220
668.00000,145.34790
670.00000,194.65498
672.00000,257.58310
674.00000,355.19852
676.00000,470.69781
678.00000,557.67798
680.00000,579.90082
682.00000,526.67981
684.00000,407.15530
686.00000,288.18997
688.00000,198.47447
690.00000,132.31316
692.00000,90.35698
694.00000,60.91920
696.00000,57.86283
698.00000,77.61368
700.00000,92.00800
702.00000,89.68461
704.00000,58.94544
706.00000,58.38395
708.00000,105.21743
710.00000,122.56475
712.00000,160.01559
714.00000,195.85780
716.00000,219.55254
718.00000,266.07886
720.00000,327.31705
722.00000,345.80396
724.00000,337.52902
726.00000,347.61945
728.00000,359.18695
730.00000,317.45465
732.00000,264.79910
734.00000,235.28871
736.00000,219.43484
738.00000,233.02771
740.00000,280.72302
742.00000,366.23517
744.00000,437.05576
746.00000,407.42017
748.00000,337.59335
750.00000,260.48645
752.00000,196.04788
754.00000,157.17000
756.00000,125.92718
758.00000,123.41911
760.00000,122.62404
762.00000,95.93289
764.00000,73.42426
766.00000,83.32516
768.00000,82.23155
770.00000,76.26095
772.00000,94.84821
774.00000,82.74763
776.00000,71.55348
778.00000,74.37875
780.00000,73.13644
782.00000,68.20168
784.00000,101.07681
786.00000,114.43858
788.00000,87.31796
790.00000,63.16991
792.00000,56.48502
794.00000,56.23819
796.00000,72.27225
798.00000,84.14300
800.00000,56.43108
802.00000,71.12272
804.00000,116.83952
806.00000,159.87286
808.00000,202.16382
810.00000,252.77054
812.00000,263.37604
814.00000,236.42006
816.00000,205.45091
818.00000,179.24043
820.00000,138.48540
822.00000,93.68394
824.00000,81.60545
826.00000,99.74559
828.00000,80.08232
830.00000,56.60925
832.00000,60.38066
834.00000,75.00163
836.00000,75.52510
838.00000,94.01241
840.00000,88.44081
842.00000,80.03742
844.00000,106.80474
846.00000,106.51322
848.00000,88.58344
850.00000,88.76377
852.00000,107.36843
854.00000,115.16114
856.00000,121.42590
858.00000,109.04308
860.00000,89.67471
862.00000,95.98219
864.00000,119.38825
866.00000,95.59734
868.00000,63.86558
870.00000,65.75027
872.00000,76.84009
874.00000,89.92357
876.00000,56.69096
878.00000,39.08554
880.00000,74.17526
882.00000,45.03137
884.00000,55.65517
886.00000,80.54955
888.00000,85.76915
890.00000,111.43204
892.00000,118.10308
894.00000,125.84658
896.00000,118.52121
898.00000,82.35326
900.00000,68.37417
902.00000,54.25602
904.00000,66.09437
906.00000,76.24685
908.00000,35.70321
910.00000,50.98222
912.00000,37.26315
914.00000,20.94744
916.00000,53.82543
918.00000,38.89424
920.00000,34.08522
922.00000,41.07637
924.00000,32.72129
926.00000,24.80661
928.00000,57.20623
930.00000,67.80511
932.00000,61.77691
934.00000,73.31117
936.00000,74.06527
938.00000,84.45233
940.00000,86.79356
942.00000,79.31743
944.00000,94.03874
946.00000,132.82405
948.00000,172.43388
950.00000,198.60022
952.00000,218.87895
954.00000,252.61298
956.00000,305.48407
958.00000,366.32425
960.00000,426.99258
962.00000,490.79800
964.00000,555.47821
966.00000,581.71289
968.00000,577.56030
970.00000,558.54840
972.00000,506.68298
974.00000,459.34988
976.00000,403.55844
978.00000,343.58603
980.00000,315.94574
982.00000,315.68323
984.00000,313.91110
986.00000,317.47501
988.00000,360.82840
990.00000,454.31937
992.00000,553.12708
994.00000,714.72021
996.00000,992.08661
998.00000,1327.45618
1000.00000,1560.89758
1002.00000,1573.00610
1004.00000,1335.03015
1006.00000,966.58020
1008.00000,661.18732
1010.00000,418.81287
1012.00000,264.96561
1014.00000,204.79581
1016.00000,189.85301
1018.00000,175.89868
1020.00000,176.49174
1022.00000,205.70341
1024.00000,267.32681
1026.00000,355.90717
1028.00000,436.04456
1030.00000,486.66629
1032.00000,497.90796
1034.00000,479.92679
1036.00000,459.99814
1038.00000,390.36682
1040.00000,318.51721
1042.00000,284.68756
1044.00000,245.69841
1046.00000,237.79175
1048.00000,241.56696
1050.00000,246.65634
1052.00000,271.70981
1054.00000,320.28915
1056.00000,401.18665
1058.00000,494.97192
1060.00000,560.96252
1062.00000,575.70325
1064.00000,560.83508
1066.00000,470.63287
1068.00000,366.91916
1070.00000,329.01105
1072.00000,267.11319
1074.00000,239.30762
1076.00000,247.94969
1078.00000,273.65292
1080.00000,355.45255
1082.00000,524.69470
1084.00000,680.34540
1086.00000,716.55078
1088.00000,621.06226
1090.00000,468.40726
1092.00000,315.34589
1094.00000,221.54964
1096.00000,206.67068
1098.00000,230.03105
1100.00000,255.89983
1102.00000,319.01340
1104.00000,403.26965
1106.00000,452.10681
1108.00000,465.55835
1110.00000,469.68140
1112.00000,451.39526
1114.00000,372.25757
1116.00000,249.75383
1118.00000,212.84914
1120.00000,199.21272
1122.00000,158.37112
1124.00000,115.12920
1126.00000,83.74339
1128.00000,67.48908
1130.00000,67.51414
1132.00000,71.36141
1134.00000,63.60992
1136.00000,59.29080
1138.00000,52.43505
1140.00000,50.50853
1142.00000,69.58017
1144.00000,103.77781
1146.00000,138.19489
1148.00000,209.14720
1150.00000,327.65207
1152.00000,461.29654
1154.00000,623.64368
1156.00000,799.49164
1158.00000,932.71271
1160.00000,983.00122
1162.00000,960.09753
1164.00000,839.79443
1166.00000,698.27509
1168.00000,591.71893
1170.00000,495.47208
1172.00000,414.17136
1174.00000,379.86182
1176.00000,391.29196
1178.00000,423.82327
1180.00000,463.13852
1182.00000,481.35931
1184.00000,463.29950
1186.00000,424.67163
1188.00000,395.58978
1190.00000,380.60617
1192.00000,376.54538
1194.00000,389.67172
1196.00000,404.41400
1198.00000,387.44308
1200.00000,397.44897
1202.00000,403.55765
1204.00000,383.55551
1206.00000,341.43765
1208.00000,221.07838
1210.00000,178.91095
1212.00000,156.71262
1214.00000,81.96710
1216.00000,117.16389
1218.00000,182.56131
1220.00000,303.32874
1222.00000,489.28723
1224.00000,705.70728
1226.00000,1011.65680
1228.00000,1277.88879
1230.00000,1362.07385
1232.00000,1231.08594
1234.00000,976.34595
1236.00000,749.25555
1238.00000,640.11945
1240.00000,614.79089
1242.00000,589.82581
1244.00000,560.41638
1246.00000,465.27124
1248.00000,325.12106
1250.00000,222.99138
1252.00000,199.90611
1254.00000,215.30418
1256.00000,225.14720
1258.00000,254.24643
1260.00000,318.35486
1262.00000,313.51440
1264.00000,289.32867
1266.00000,312.24936
1268.00000,406.31137
1270.00000,563.04163
1272.00000,752.83795
1274.00000,981.69598
1276.00000,1265.25708
1278.00000,1565.53223
1280.00000,1760.47046
1282.00000,1772.99365
1284.00000,1615.48132
1286.00000,1359.35999
1288.00000,1082.42578
1290.00000,834.70618
1292.00000,635.61188
1294.00000,481.30951
1296.00000,361.38058
1298.00000,276.49399
1300.00000,230.81721
1302.00000,182.38878
1304.00000,125.80267
1306.00000,118.02935
1308.00000,134.94911
1310.00000,175.56271
1312.00000,198.76505
1314.00000,194.03221
1316.00000,260.05615
1318.00000,267.07071
1320.00000,243.31805
1322.00000,260.09305
1324.00000,272.45596
1326.00000,289.56030
1328.00000,292.06085
1330.00000,300.02124
1332.00000,332.16617
1334.00000,319.46713
1336.00000,257.10645
1338.00000,239.65021
1340.00000,299.14484
1342.00000,377.41550
1344.00000,542.79755
1346.00000,720.63763
1348.00000,933.17731
1350.00000,1270.99866
1352.00000,1678.64624
1354.00000,2106.25195
1356.00000,2454.78955
1358.00000,2580.57227
1360.00000,2412.19189
1362.00000,2104.61499
1364.00000,1774.57617
1366.00000,1501.55823
1368.00000,1345.80383
1370.00000,1331.77283
1372.00000,1429.55640
1374.00000,1470.95264
1376.00000,1395.83655
1378.00000,1298.04797
1380.00000,1118.88855
1382.00000,991.65967
1384.00000,993.09290
1386.00000,1074.95203
1388.00000,1192.05713
1390.00000,1316.82837
1392.00000,1296.31226
1394.00000,1119.89771
1396.00000,920.61176
1398.00000,590.38074
1400.00000,360.72006
1402.00000,263.17328
1404.00000,153.48882
1406.00000,77.84763
1408.00000,68.04031
1410.00000,57.33885
1412.00000,22.47108
1414.00000,18.47888
1416.00000,22.10571
1418.00000,19.30701
1420.00000,10.40365
1422.00000,2.10176
1424.00000,6.14399
1426.00000,35.49122
1428.00000,40.04293
1430.00000,56.61571
1432.00000,158.81796
1434.00000,209.73558
1436.00000,279.00491
1438.00000,397.58347
1440.00000,517.11481
1442.00000,636.52216
1444.00000,796.42670
1446.00000,962.75867
1448.00000,1080.73169
1450.00000,1129.36401
1452.00000,1125.68457
1454.00000,1192.86328
1456.00000,1258.48352
1458.00000,1247.38196
1460.00000,1286.79724
1462.00000,1258.02527
1464.00000,1199.49854
1466.00000,1122.08276
1468.00000,1002.96112
1470.00000,1030.14233
1472.00000,1053.39697
1474.00000,1095.09375
1476.00000,1277.88452
1478.00000,1527.42627
1480.00000,1760.91406
1482.00000,1909.02686
1484.00000,1924.23901
1486.00000,1805.18774
1488.00000,1624.93018
1490.00000,1489.92114
1492.00000,1314.26575
1494.00000,1039.87793
1496.00000,827.01929
1498.00000,681.35431
1500.00000,551.62878
1502.00000,402.44385
1504.00000,273.17090
1506.00000,250.99956
1508.00000,154.83728
1510.00000,60.41651
1512.00000,72.63033
1514.00000,37.78360
1516.00000,5.85618
1518.00000,29.27762
1520.00000,57.81710
1522.00000,33.79129
1524.00000,39.50976
1526.00000,69.25317
1528.00000,70.96832
1530.00000,54.29091
1532.00000,96.68889
1534.00000,164.61784
1536.00000,170.70282
1538.00000,179.64204
1540.00000,305.25281
1542.00000,441.51263
1544.00000,570.33105
1546.00000,736.90137
1548.00000,935.21381
1550.00000,1090.74792
1552.00000,1208.51526
1554.00000,1234.87097
1556.00000,1164.45667
1558.00000,1092.04419
1560.00000,1113.48950
1562.00000,1152.31848
1564.00000,1224.28540
1566.00000,1355.32275
1568.00000,1494.76978
1570.00000,1708.73389
1572.00000,2046.95911
1574.00000,2445.56299
1576.00000,2791.60547
1578.00000,3039.75757
1580.00000,3092.30884
1582.00000,2898.39893
1584.00000,2534.51416
1586.00000,2144.87231
1588.00000,1753.74841
1590.00000,1469.68628
1592.00000,1309.39929
1594.00000,1186.34949
1596.00000,1078.15247
1598.00000,1035.04480
1600.00000,1051.27002
1602.00000,1048.58948
1604.00000,971.25745
1606.00000,895.43634
1608.00000,745.82709
1610.00000,572.19672
1612.00000,459.72235
1614.00000,296.22498
1616.00000,241.07127
1618.00000,240.80840
1620.00000,181.76021
1622.00000,115.53197
1624.00000,109.37004
1626.00000,119.99192
1628.00000,94.42117
1630.00000,66.22313
1632.00000,111.24871
1634.00000,89.58738
1636.00000,36.09736
1638.00000,41.13923
1640.00000,63.80743
1642.00000,24.21635
1644.00000,25.57150
1646.00000,60.34314
1648.00000,48.87177
1650.00000,50.15657
1652.00000,60.43016
1654.00000,57.21220
1656.00000,64.95861
1658.00000,102.36117
1660.00000,66.07941
1662.00000,62.33927
1664.00000,76.68029
1666.00000,51.81038
1668.00000,95.25856
1670.00000,85.59463
1672.00000,64.99797
1674.00000,64.55762
1676.00000,28.18233
1678.00000,59.32178
1680.00000,57.93139
1682.00000,13.43469
1684.00000,10.11608
1686.00000,33.51950
1688.00000,19.49603
1690.00000,1.18227
1692.00000,9.97525
1694.00000,22.38440
1696.00000,45.93962
1698.00000,49.94412
1700.00000,28.93674
1702.00000,26.73087
1704.00000,77.85841
1706.00000,96.19492
1708.00000,94.66402
1710.00000,107.37433
1712.00000,121.00718
1714.00000,131.45912
1716.00000,108.12198
1718.00000,133.68739
1720.00000,205.06172
1722.00000,149.70753
1724.00000,183.54228
1726.00000,204.69939
1728.00000,162.22101
1730.00000,184.90961
1732.00000,168.67836
1734.00000,172.69020
1736.00000,166.81122
1738.00000,128.34961
1740.00000,162.80252
1742.00000,153.63831
1744.00000,155.43921
1746.00000,154.94824
1748.00000,80.08475
1750.00000,108.20537
1752.00000,115.96888
1754.00000,69.35377
1756.00000,61.93249
1758.00000,105.50163
1760.00000,83.18941
1762.00000,98.28021
1764.00000,131.43835
1766.00000,61.29271
1768.00000,62.02962
1770.00000,81.54485
1772.00000,65.72635
1774.00000,38.77569
1776.00000,33.01212
1778.00000,29.37938
1780.00000,0.83678
1782.00000,23.05540
1784.00000,113.20025
1786.00000,42.24044
1788.00000,46.02422
1790.00000,99.05814
1792.00000,63.99931
1794.00000,52.22991
1796.00000,104.88049
1798.00000,151.90529
1800.00000,170.52342
1802.00000,199.43570
1804.00000,219.62814
1806.00000,226.96469
1808.00000,212.28918
1810.00000,206.64537
1812.00000,260.97342
1814.00000,289.18097
1816.00000,293.40469
1818.00000,310.98080
1820.00000,337.07178
1822.00000,334.13635
1824.00000,336.81610
1826.00000,351.53867
1828.00000,355.66635
1830.00000,349.84836
1832.00000,364.74344
1834.00000,313.11725
1836.00000,294.19891
1838.00000,395.14661
1840.00000,341.59146
1842.00000,354.91116
1844.00000,393.54840
1846.00000,350.75366
1848.00000,365.02054
1850.00000,436.20026
1852.00000,364.16995
1854.00000,276.95651
1856.00000,357.38904
1858.00000,288.18103
1860.00000,225.93130
1862.00000,178.15486
1864.00000,102.35356
1866.00000,73.95111
1868.00000,11.15590
1870.00000,56.17763
1872.00000,101.84755
1874.00000,1.33213
1876.00000,34.15944
1878.00000,46.44514
1880.00000,45.94818
1882.00000,69.87709
1884.00000,25.99199
1886.00000,-0.21866
1888.00000,20.06516
1890.00000,36.53500
1892.00000,25.54511
1894.00000,51.80065
1896.00000,71.08167
1898.00000,79.92052
1900.00000,94.85585
1902.00000,97.38888
1904.00000,75.90292
1906.00000,133.90280
1908.00000,166.79514
1910.00000,98.95692
1912.00000,173.37738
1914.00000,169.84607
1916.00000,130.99126
1918.00000,136.82628
1920.00000,102.11402
1922.00000,103.05122
1924.00000,70.35023
1926.00000,59.03462
1928.00000,129.52994
1930.00000,122.58648
1932.00000,86.65738
1934.00000,102.89368
1936.00000,164.60281
1938.00000,184.41191
1940.00000,111.66750
1942.00000,33.52143
1944.00000,121.73459
1946.00000,239.84541
1948.00000,14.63779
1950.00000,192.67859
1952.00000,262.70828
1954.00000,43.52361
1956.00000,181.34966
1958.00000,104.41855
1960.00000,89.13564
1962.00000,150.42955
1964.00000,74.78480
1966.00000,79.73852
1968.00000,161.62222
1970.00000,124.51877
1972.00000,66.25748
1974.00000,177.25119
1976.00000,39.39257
1978.00000,65.15556
1980.00000,142.10632
1982.00000,14.27896
1984.00000,83.02270
1986.00000,90.77103
1988.00000,40.74081
1990.00000,45.22257
1992.00000,69.61720
1994.00000,67.53126
1996.00000,102.68176
1998.00000,97.72057
2000.00000,50.68205
2002.00000,55.90287
2004.00000,53.91355
2006.00000,52.48621
2008.00000,61.10191
2010.00000,62.65747
2012.00000,55.60284
2014.00000,60.82796
2016.00000,81.20217
2018.00000,68.55091
2020.00000,55.24083
2022.00000,58.13148
2024.00000,61.18892
2026.00000,54.38037
2028.00000,46.72634
2030.00000,58.87545
2032.00000,77.62760
2034.00000,70.57379
2036.00000,63.36766
2038.00000,65.60535
2040.00000,60.07461
2042.00000,46.76748
2044.00000,65.13242
2046.00000,85.48200
2048.00000,76.95117
2050.00000,58.72617
2052.00000,72.79373
2054.00000,84.25545
2056.00000,69.75423
2058.00000,58.95934
2060.00000,79.58242
2062.00000,84.32245
2064.00000,71.27065
2066.00000,53.75923
2068.00000,45.66346
2070.00000,56.52716
2072.00000,71.45196
2074.00000,69.23325
2076.00000,54.83674
2078.00000,51.59342
2080.00000,57.33346
2082.00000,62.85316
2084.00000,56.26256
2086.00000,38.40325
2088.00000,31.01651
2090.00000,41.64013
2092.00000,32.32811
2094.00000,29.17452
2096.00000,84.74895
2098.00000,66.41148
2100.00000,33.33992
2102.00000,47.65174
2104.00000,81.77798
2106.00000,93.13003
2108.00000,58.70453
2110.00000,45.75391
2112.00000,71.87957
2114.00000,54.53129
2116.00000,45.40645
2118.00000,78.52171
2120.00000,91.48842
2122.00000,44.77563
2124.00000,71.25270
2126.00000,98.15874
2128.00000,80.25351
2130.00000,65.72541
2132.00000,88.58789
2134.00000,61.91752
2136.00000,56.27774
2138.00000,88.09903
2140.00000,62.06818
2142.00000,41.75456
2144.00000,78.07300
2146.00000,94.90594
2148.00000,43.07352
2150.00000,47.86126
2152.00000,68.95034
2154.00000,62.62898
2156.00000,43.60891
2158.00000,47.30583
2160.00000,57.12577
2162.00000,56.77595
2164.00000,53.48480
2166.00000,62.07269
2168.00000,73.75253
2170.00000,70.07480
2172.00000,58.77904
2174.00000,50.91383
2176.00000,42.09643
2178.00000,50.66114
2180.00000,53.50367
2182.00000,45.11136
2184.00000,48.64122
2186.00000,54.32106
2188.00000,66.20791
2190.00000,77.61198
2192.00000,71.00818
2194.00000,47.44497
2196.00000,51.23976
2198.00000,45.77845
2200.00000,29.27777
2202.00000,55.94200
2204.00000,63.42948
2206.00000,84.20318
2208.00000,107.20333
2210.00000,86.36938
2212.00000,59.64777
2214.00000,48.95295
2216.00000,42.12773
2218.00000,39.84343
2220.00000,67.39624
2222.00000,94.85321
2224.00000,65.40288
2226.00000,24.88456
2228.00000,53.26818
2230.00000,75.27065
2232.00000,67.56667
2234.00000,52.51008
2236.00000,60.48059
2238.00000,92.47572
2240.00000,94.24487
2242.00000,66.72897
2244.00000,56.49643
2246.00000,80.26573
2248.00000,71.21693
2250.00000,59.44118
2252.00000,50.82369
2254.00000,34.12974
2256.00000,50.69520
2258.00000,78.88528
2260.00000,78.72633
2262.00000,63.48360
2264.00000,77.08762
2266.00000,66.09837
2268.00000,44.64408
2270.00000,49.80972
2272.00000,77.42048
2274.00000,78.83939
2276.00000,57.59803
2278.00000,51.77449
2280.00000,69.76075
2282.00000,75.63243
2284.00000,81.39786
2286.00000,70.08209
2288.00000,36.95415
2290.00000,18.62363
2292.00000,46.21061
2294.00000,41.60715
2296.00000,32.13230
2298.00000,64.38983
2300.00000,62.53230
2302.00000,66.71453
2304.00000,73.30325
2306.00000,78.46571
2308.00000,94.15424
2310.00000,60.89349
2312.00000,62.54331
2314.00000,104.53938
2316.00000,102.61463
2318.00000,64.02436
2320.00000,83.60032
2322.00000,85.35455
2324.00000,45.41988
2326.00000,86.23895
2328.00000,67.85545
2330.00000,46.15234
2332.00000,68.49882
2334.00000,83.13300
2336.00000,90.17297
2338.00000,68.86607
2340.00000,53.50497
2342.00000,68.26093
2344.00000,70.61595
2346.00000,88.52830
2348.00000,88.69517
2350.00000,56.64542
2352.00000,35.97361
2354.00000,39.68669
2356.00000,56.15003
2358.00000,61.59071
2360.00000,54.53359
2362.00000,64.80672
2364.00000,64.56892
2366.00000,50.96685
2368.00000,51.10244
2370.00000,70.67950
2372.00000,51.21035
2374.00000,29.14173
2376.00000,33.10949
2378.00000,42.31414
2380.00000,46.33115
2382.00000,63.73608
2384.00000,50.88476
2386.00000,18.95748
2388.00000,58.00248
2390.00000,47.84026
2392.00000,28.95981
2394.00000,42.22346
2396.00000,49.20140
2398.00000,67.35815
2400.00000,55.82952
2402.00000,71.35447
2404.00000,115.25501
2406.00000,39.14331
2408.00000,34.72226
2410.00000,79.07808
2412.00000,66.82630
2414.00000,38.80381
2416.00000,97.37596
2418.00000,90.23062
2420.00000,53.02891
2422.00000,101.20210
2424.00000,74.43668
2426.00000,70.91641
2428.00000,109.94283
2430.00000,124.50323
2432.00000,102.98051
2434.00000,113.38562
2436.00000,119.71625
2438.00000,92.72209
2440.00000,75.04916
2442.00000,108.57867
2444.00000,128.07051
2446.00000,129.69160
2448.00000,134.95490
2450.00000,117.69670
2452.00000,118.45116
2454.00000,102.65517
2456.00000,89.57906
2458.00000,130.57994
2460.00000,107.25777
2462.00000,89.35788
2464.00000,117.15598
2466.00000,120.10744
2468.00000,52.57089
2470.00000,78.80000
2472.00000,108.99431
2474.00000,64.94192
2476.00000,61.48892
2478.00000,58.40433
2480.00000,77.00423
2482.00000,90.74075
2484.00000,51.43252
2486.00000,22.78975
2488.00000,26.53754
2490.00000,45.34002
2492.00000,55.33222
2494.00000,50.42708
2496.00000,42.98146
2498.00000,49.77460
2500.00000,56.08035
2502.00000,46.38894
2504.00000,66.60953
2506.00000,91.08034
2508.00000,98.72263
2510.00000,98.69375
2512.00000,105.13340
2514.00000,118.21185
2516.00000,104.26746
2518.00000,69.97137
2520.00000,72.63264
2522.00000,109.16713
2524.00000,96.94440
2526.00000,72.82961
2528.00000,89.34412
2530.00000,44.32996
2532.00000,62.10739
2534.00000,91.31009
2536.00000,69.11485
2538.00000,82.15593
2540.00000,87.14900
2542.00000,116.80369
2544.00000,123.32697
2546.00000,61.21541
2548.00000,102.94449
2550.00000,143.45064
2552.00000,130.62106
2554.00000,122.94302
2556.00000,145.31934
2558.00000,125.30383
2560.00000,116.21497
2562.00000,132.70468
2564.00000,111.83263
2566.00000,112.18816
2568.00000,151.65511
2570.00000,152.74924
2572.00000,98.15309
2574.00000,121.60856
2576.00000,135.20169
2578.00000,125.06226
2580.00000,107.12082
2582.00000,82.51177
2584.00000,149.99091
2586.00000,121.72487
2588.00000,66.39098
2590.00000,145.73921
2592.00000,82.92661
2594.00000,17.35985
2596.00000,66.27441
2598.00000,123.04749
2600.00000,44.99611
2602.00000,53.31190
2604.00000,107.75629
2606.00000,110.04440
2608.00000,87.78236
2610.00000,82.64253
2612.00000,73.81013
2614.00000,77.24644
2616.00000,107.07715
2618.00000,116.23026
2620.00000,114.00324
2622.00000,91.07529
2624.00000,77.16634
2626.00000,108.75650
2628.00000,91.11731
2630.00000,106.57417
2632.00000,125.39374
2634.00000,92.91196
2636.00000,148.33858
2638.00000,147.23463
2640.00000,106.47795
2642.00000,104.55388
2644.00000,108.85383
2646.00000,131.39569
2648.00000,122.10710
2650.00000,105.94616
2652.00000,146.92197
2654.00000,170.42342
2656.00000,130.25414
2658.00000,95.18060
2660.00000,128.68481
2662.00000,164.13974
2664.00000,118.03162
2666.00000,121.70771
2668.00000,183.65646
2670.00000,148.24973
2672.00000,99.69560
2674.00000,118.94672
2676.00000,122.92217
2678.00000,73.93192
2680.00000,141.55260
2682.00000,184.02731
2684.00000,162.47722
2686.00000,126.79482
2688.00000,94.84348
2690.00000,83.51928
2692.00000,123.13582
2694.00000,177.41917
2696.00000,166.98483
2698.00000,96.72429
2700.00000,122.53889
2702.00000,135.35223
2704.00000,61.61886
2706.00000,84.62354
2708.00000,105.25587
2710.00000,78.73035
2712.00000,89.02905
2714.00000,166.19699
2716.00000,120.06543
2718.00000,111.26936
2720.00000,150.87614
2722.00000,134.93782
2724.00000,116.64783
2726.00000,119.45432
2728.00000,133.18060
2730.00000,125.00988
2732.00000,100.76846
2734.00000,153.72365
2736.00000,128.32129
2738.00000,75.92420
2740.00000,127.29992
2742.00000,117.78205
2744.00000,113.93745
2746.00000,100.39879
2748.00000,58.20736
2750.00000,69.56671
2752.00000,124.35938
2754.00000,111.64034
2756.00000,52.43407
2758.00000,64.15466
2760.00000,101.96619
2762.00000,57.33168
2764.00000,52.42931
2766.00000,147.46249
2768.00000,126.83141
2770.00000,70.27890
2772.00000,127.44907
2774.00000,203.61359
2776.00000,134.69518
2778.00000,171.40512
2780.00000,197.08380
2782.00000,203.87830
2784.00000,234.50153
2786.00000,146.16727
2788.00000,175.02319
2790.00000,231.35378
2792.00000,188.48863
2794.00000,174.96848
2796.00000,236.29018
2798.00000,201.50125
2800.00000,165.35986
2802.00000,283.50436
2804.00000,275.80444
2806.00000,211.07693
2808.00000,199.45406
2810.00000,205.99739
2812.00000,161.04330
2814.00000,252.64613
2816.00000,327.85284
2818.00000,295.80240
2820.00000,301.74216
2822.00000,376.87247
2824.00000,314.69443
2826.00000,305.61990
2828.00000,477.03860
2830.00000,454.17554
2832.00000,488.79584
2834.00000,556.07813
2836.00000,559.27136
2838.00000,594.84186
2840.00000,707.24658
2842.00000,763.38892
2844.00000,823.47198
2846.00000,976.30835
2848.00000,1023.82001
2850.00000,1058.95520
2852.00000,1100.35266
2854.00000,1154.22827
2856.00000,1280.13049
2858.00000,1354.96973
2860.00000,1377.20886
2862.00000,1401.42822
2864.00000,1422.37537
2866.00000,1382.87964
2868.00000,1416.39160
2870.00000,1504.71313
2872.00000,1489.41956
2874.00000,1356.68433
2876.00000,1436.24487
2878.00000,1411.36292
2880.00000,1207.98450
2882.00000,1166.43762
2884.00000,1059.14063
2886.00000,1009.91144
2888.00000,993.39508
2890.00000,931.22528
2892.00000,995.72516
2894.00000,1025.37854
2896.00000,1080.76147
2898.00000,1162.32556
2900.00000,1128.31299
2902.00000,1221.89783
2904.00000,1269.69604
2906.00000,1242.02551
2908.00000,1289.67664
2910.00000,1312.34290
2912.00000,1309.35413
2914.00000,1331.07446
2916.00000,1353.10413
2918.00000,1300.92346
2920.00000,1291.97229
2922.00000,1301.47510
2924.00000,1273.96753
2926.00000,1221.74829
2928.00000,1173.75293
2930.00000,1149.91589
2932.00000,1119.62207
2934.00000,1086.42358
2936.00000,1110.97058
2938.00000,1069.04773
2940.00000,955.72375
2942.00000,875.59143
2944.00000,860.98047
2946.00000,757.66016
2948.00000,717.51587
2950.00000,658.12671
2952.00000,494.91397
2954.00000,546.74701
2956.00000,479.77188
2958.00000,421.10379
2960.00000,490.61304
2962.00000,413.39703
2964.00000,359.98074
2966.00000,394.19489
2968.00000,380.97937
2970.00000,271.09995
2972.00000,322.00403
2974.00000,351.64923
2976.00000,265.31174
2978.00000,181.22278
2980.00000,207.16888
2982.00000,214.35701
2984.00000,170.72214
2986.00000,139.87398
2988.00000,162.10976
2990.00000,182.82529
2992.00000,194.89531
2994.00000,118.04734
2996.00000,49.77572
2998.00000,282.50699
3000.00000,250.01453
3002.00000,86.70632
3004.00000,128.35817
3006.00000,206.68790
3008.00000,46.11095
3010.00000,65.01631
3012.00000,164.58441
3014.00000,14.66909
3016.00000,98.28543
3018.00000,130.74054
3020.00000,93.83312
3022.00000,167.35104
3024.00000,273.35599
3026.00000,239.48055
3028.00000,275.47015
3030.00000,365.38153
3032.00000,339.19220
3034.00000,520.03918
3036.00000,646.93274
3038.00000,635.65198
3040.00000,659.08875
3042.00000,779.68085
3044.00000,918.85638
3046.00000,992.54877
3048.00000,1041.78027
3050.00000,1180.38318
3052.00000,1361.84277
3054.00000,1444.06067
3056.00000,1499.83984
3058.00000,1599.08228
3060.00000,1537.36096
3062.00000,1525.98633
3064.00000,1555.38464
3066.00000,1444.68152
3068.00000,1214.65271
3070.00000,1206.29675
3072.00000,1061.09277
3074.00000,797.45251
3076.00000,791.96320
3078.00000,761.56842
3080.00000,591.55499
3082.00000,500.20959
3084.00000,528.25073
3086.00000,373.83548
3088.00000,325.36334
3090.00000,347.33929
3092.00000,253.16751
3094.00000,103.98877
3096.00000,197.93237
3098.00000,147.41864
3100.00000,58.44075
3102.00000,181.90323
3104.00000,137.78410
3106.00000,105.40738
3108.00000,106.39726
3110.00000,60.74836
3112.00000,5.11309
3114.00000,-1.74343
3116.00000,-3.47169
3118.00000,9.35402
3120.00000,43.68676
3122.00000,0.00234
3124.00000,55.37748
3126.00000,89.57438
3128.00000,-6.12334
3130.00000,-9.08282
3132.00000,139.03383
3134.00000,170.06427
3136.00000,68.87823
3138.00000,73.20450
3140.00000,96.07889
3142.00000,55.29175
3144.00000,32.98885
3146.00000,48.39175
3148.00000,-14.88611
3150.00000,144.94331
3152.00000,135.01921
3154.00000,16.66480
3156.00000,277.48273
3158.00000,118.14487
3160.00000,75.45563
3162.00000,215.62852
3164.00000,124.58235
3166.00000,103.45718
3168.00000,174.78297
3170.00000,210.30136
3172.00000,132.49158
3174.00000,31.49379
3176.00000,117.93731
3178.00000,263.30234
3180.00000,217.51039
3182.00000,62.43373
3184.00000,245.33929
3186.00000,143.22643
3188.00000,21.21150
3190.00000,212.31523
3192.00000,140.62599
3194.00000,125.87729
3196.00000,87.24458
3198.00000,-4.27463
3200.00000,67.13273
