300.00000,733.59711
302.00000,741.86938
304.00000,808.95923
306.00000,850.23663
308.00000,881.61725
310.00000,947.05292
312.00000,1030.14941
314.00000,1121.25635
316.00000,1202.09497
318.00000,1272.89136
320.00000,1345.76733
322.00000,1411.95166
324.00000,1432.64648
326.00000,1393.99792
328.00000,1270.52063
330.00000,1010.72430
332.00000,611.31128
334.00000,208.57181
336.00000,-0.40828
338.00000,2.35041
340.00000,4.36007
342.00000,110.67249
344.00000,258.77853
346.00000,324.55652
348.00000,308.61124
350.00000,271.27759
352.00000,182.95033
354.00000,93.75834
356.00000,73.20497
358.00000,81.10735
360.00000,119.83331
362.00000,125.58493
364.00000,102.97923
366.00000,117.47048
368.00000,100.12293
370.00000,117.31453
372.00000,159.37199
374.00000,175.61562
376.00000,205.04214
378.00000,240.46513
380.00000,277.09937
382.00000,314.18109
384.00000,353.35391
386.00000,404.54434
388.00000,434.72226
390.00000,435.59882
392.00000,423.09183
394.00000,404.54929
396.00000,392.20474
398.00000,380.16187
400.00000,378.86301
402.00000,403.10110
404.00000,420.72446
406.00000,444.94467
408.00000,495.88586
410.00000,558.31940
412.00000,601.23889
414.00000,674.21686
416.00000,770.69580
418.00000,878.20142
420.00000,1016.14734
422.00000,1193.33911
424.00000,1385.74500
426.00000,1586.63391
428.00000,1771.41077
430.00000,1883.59375
432.00000,1950.38782
434.00000,2004.36426
436.00000,2090.78906
438.00000,2224.58081
440.00000,2324.68701
442.00000,2374.52026
444.00000,2375.31445
446.00000,2332.58716
448.00000,2262.52417
450.00000,2167.66504
452.00000,2029.99170
454.00000,1861.44336
456.00000,1708.94788
458.00000,1593.23901
460.00000,1450.56897
462.00000,1277.62805
464.00000,1115.61658
466.00000,977.80096
468.00000,856.81873
470.00000,737.43774
472.00000,612.71838
474.00000,503.16000
476.00000,448.13593
478.00000,409.41513
480.00000,365.15329
482.00000,343.80920
484.00000,365.95123
486.00000,357.29327
488.00000,409.65570
490.00000,476.23450
492.00000,451.80402
494.00000,498.16351
496.00000,578.07214
498.00000,675.31805
500.00000,773.52264
502.00000,820.04102
504.00000,887.12610
506.00000,986.59332
508.00000,1098.69312
510.00000,1207.84167
512.00000,1304.41492
514.00000,1416.68848
516.00000,1534.50415
518.00000,1623.38892
520.00000,1667.45911
522.00000,1658.52246
524.00000,1476.82507
526.00000,1136.04065
528.00000,758.46893
530.00000,376.27151
532.00000,102.82931
534.00000,-0.25409
536.00000,5.53223
538.00000,5.50178
540.00000,5.09650
542.00000,15.55822
544.00000,28.37775
546.00000,33.94926
548.00000,44.62597
550.00000,81.47554
552.00000,125.90092
554.00000,150.39537
556.00000,165.03781
558.00000,214.36055
560.00000,272.46753
562.00000,329.04669
564.00000,399.63144
566.00000,480.76572
568.00000,595.53320
570.00000,708.54395
572.00000,748.65588
574.00000,701.11066
576.00000,667.00525
578.00000,623.23651
580.00000,587.61133
582.00000,617.85052
584.00000,684.93475
586.00000,729.78485
588.00000,790.15460
590.00000,894.19562
592.00000,1001.60175
594.00000,1104.97314
596.00000,1174.16492
598.00000,1241.31677
600.00000,1358.46997
602.00000,1501.65759
604.00000,1629.15979
606.00000,1736.14233
608.00000,1839.11023
610.00000,1944.31689
612.00000,2033.59753
614.00000,2080.56177
616.00000,2093.87085
618.00000,2066.59912
620.00000,1934.53088
622.00000,1706.27136
624.00000,1430.16260
626.00000,1169.60620
628.00000,959.04254
630.00000,764.38580
632.00000,617.82178
634.00000,521.82281
636.00000,432.67456
638.00000,331.55936
640.00000,282.04990
642.00000,258.43652
644.00000,220.45384
646.00000,177.63222
648.00000,143.66476
650.00000,141.92635
652.00000,160.50836
654.00000,176.79961
656.00000,193.48166
658.00000,198.72119
660.00000,207.91559
662.00000,226.45824
664.00000,238.28371
666.00000,249.62944
668.00000,293.72482
670.00000,367.61356
672.00000,460.57483
674.00000,592.73810
676.00000,749.11023
678.00000,874.00427
680.00000,909.02667
682.00000,835.87994
684.00000,692.69598
686.00000,516.26245
688.00000,361.05179
690.00000,264.96588
692.00000,211.02354
694.00000,165.55823
696.00000,141.49890
698.00000,137.34865
700.00000,133.51492
702.00000,149.49161
704.00000,158.32370
706.00000,165.60530
708.00000,207.05913
710.00000,284.48669
712.00000,326.91245
714.00000,348.73410
716.00000,392.54596
718.00000,455.36542
720.00000,494.43262
722.00000,528.97211
724.00000,567.68103
726.00000,584.67938
728.00000,559.17035
730.00000,529.83435
732.00000,451.50174
734.00000,357.27765
736.00000,334.76593
738.00000,348.69064
740.00000,439.63266
742.00000,550.91602
744.00000,603.60553
746.00000,596.78162
748.00000,509.47195
750.00000,419.26086
752.00000,350.67252
754.00000,267.98941
756.00000,207.70198
758.00000,189.68063
760.00000,192.78261
762.00000,190.10202
764.00000,178.18019
766.00000,157.31346
768.00000,130.67717
770.00000,127.42367
772.00000,152.20029
774.00000,137.32883
776.00000,113.23459
778.00000,116.62646
780.00000,139.40002
782.00000,144.29974
784.00000,126.83247
786.00000,128.62291
788.00000,161.74234
790.00000,193.84653
792.00000,196.12120
794.00000,169.90634
796.00000,160.29942
798.00000,175.19485
800.00000,171.64822
802.00000,178.01797
804.00000,198.37015
806.00000,238.07259
808.00000,307.09790
810.00000,386.14331
812.00000,422.71732
814.00000,398.05933
816.00000,341.30875
818.00000,288.15179
820.00000,223.22655
822.00000,176.30113
824.00000,131.46655
826.00000,87.62926
828.00000,132.56116
830.00000,169.65224
832.00000,173.55663
834.00000,167.19647
836.00000,157.50597
838.00000,183.38513
840.00000,213.18556
842.00000,229.12576
844.00000,242.42859
846.00000,246.81963
848.00000,233.33879
850.00000,214.94876
852.00000,202.65752
854.00000,203.91743
856.00000,247.25996
858.00000,265.59628
860.00000,251.63681
862.00000,245.58324
864.00000,241.12282
866.00000,272.63800
868.00000,254.01950
870.00000,195.01221
872.00000,214.76300
874.00000,214.99911
876.00000,196.97409
878.00000,197.50430
880.00000,202.55000
882.00000,168.40694
884.00000,168.82796
886.00000,197.16528
888.00000,202.32309
890.00000,188.64551
892.00000,224.87883
894.00000,247.89964
896.00000,222.63850
898.00000,185.43703
900.00000,172.63701
902.00000,174.70624
904.00000,162.57874
906.00000,143.16307
908.00000,148.96085
910.00000,160.60553
912.00000,140.93130
914.00000,112.56611
916.00000,117.21233
918.00000,139.78601
920.00000,139.26610
922.00000,117.28487
924.00000,103.69917
926.00000,122.03235
928.00000,163.78085
930.00000,175.00731
932.00000,178.30145
934.00000,212.17369
936.00000,239.05974
938.00000,247.65269
940.00000,257.52887
942.00000,261.72641
944.00000,255.09102
946.00000,301.53522
948.00000,324.51047
950.00000,353.26532
952.00000,434.63181
954.00000,495.68417
956.00000,562.77765
958.00000,641.50311
960.00000,731.79712
962.00000,833.03210
964.00000,910.59869
966.00000,959.38965
968.00000,949.85663
970.00000,878.85620
972.00000,804.78815
974.00000,730.60791
976.00000,636.71674
978.00000,561.84503
980.00000,550.48090
982.00000,535.70703
984.00000,521.20190
986.00000,527.66394
988.00000,570.52942
990.00000,659.31927
992.00000,783.13013
994.00000,996.19965
996.00000,1353.79053
998.00000,1793.41064
1000.00000,2094.95752
1002.00000,2143.28369
1004.00000,1868.63391
1006.00000,1373.99011
1008.00000,934.39984
1010.00000,614.87073
1012.00000,430.32498
1014.00000,346.36813
1016.00000,300.74234
1018.00000,279.69229
1020.00000,317.74637
1022.00000,350.54984
1024.00000,382.44199
1026.00000,526.14526
1028.00000,643.68176
1030.00000,718.15607
1032.00000,748.72974
1034.00000,712.51410
1036.00000,654.07764
1038.00000,591.78369
1040.00000,496.82645
1042.00000,388.44397
1044.00000,355.06860
1046.00000,390.67276
1048.00000,401.33252
1050.00000,385.48035
1052.00000,422.70718
1054.00000,513.60834
1056.00000,598.76697
1058.00000,728.41046
1060.00000,883.80933
1062.00000,916.77594
1064.00000,861.33923
1066.00000,744.78937
1068.00000,627.56653
1070.00000,562.14404
1072.00000,510.25659
1074.00000,482.21326
1076.00000,493.74957
1078.00000,550.64606
1080.00000,662.18286
1082.00000,850.68402
1084.00000,1083.50220
1086.00000,1197.14819
1088.00000,1072.54980
1090.00000,834.93091
1092.00000,573.60529
1094.00000,430.78513
1096.00000,434.96167
1098.00000,454.23743
1100.00000,462.62228
1102.00000,512.54510
1104.00000,628.52325
1106.00000,761.11346
1108.00000,822.99567
1110.00000,792.43298
1112.00000,709.85590
1114.00000,614.00470
1116.00000,505.27588
1118.00000,386.96957
1120.00000,347.17786
1122.00000,339.42648
1124.00000,266.86984
1126.00000,190.29509
1128.00000,160.69510
1130.00000,148.40196
1132.00000,123.75222
1134.00000,108.63519
1136.00000,123.62516
1138.00000,164.60492
1140.00000,171.18623
1142.00000,142.35960
1144.00000,192.24797
1146.00000,250.66869
1148.00000,336.08917
1150.00000,465.01831
1152.00000,607.21527
1154.00000,825.08984
1156.00000,1071.84741
1158.00000,1289.37292
1160.00000,1404.95618
1162.00000,1330.48206
1164.00000,1175.26770
1166.00000,986.02142
1168.00000,801.65314
1170.00000,678.69019
1172.00000,586.06702
1174.00000,564.96698
1176.00000,569.92590
1178.00000,553.78168
1180.00000,589.05981
1182.00000,647.39978
1184.00000,647.41022
1186.00000,607.20923
1188.00000,606.54681
1190.00000,586.24457
1192.00000,549.86957
1194.00000,536.60254
1196.00000,549.90649
1198.00000,554.67322
1200.00000,590.67603
1202.00000,609.11639
1204.00000,604.05371
1206.00000,594.31799
1208.00000,461.34427
1210.00000,333.25626
1212.00000,282.00952
1214.00000,266.75214
1216.00000,273.18475
1218.00000,373.31381
1220.00000,509.46896
1222.00000,713.70300
1224.00000,1101.40503
1226.00000,1574.94934
1228.00000,1969.80835
1230.00000,2092.47217
1232.00000,1890.71155
1234.00000,1541.11035
1236.00000,1212.52991
1238.00000,1031.71655
1240.00000,1007.05945
1242.00000,1018.21649
1244.00000,920.01984
1246.00000,723.82819
1248.00000,546.10254
1250.00000,442.97910
1252.00000,366.45303
1254.00000,377.60535
1256.00000,419.18860
1258.00000,428.53598
1260.00000,426.76059
1262.00000,449.71088
1264.00000,416.32169
1266.00000,446.90353
1268.00000,598.43274
1270.00000,723.34192
1272.00000,1015.61749
1274.00000,1419.30005
1276.00000,1840.61584
1278.00000,2260.68774
1280.00000,2575.04248
1282.00000,2635.89404
1284.00000,2419.03857
1286.00000,2043.79272
1288.00000,1663.64355
1290.00000,1311.48157
1292.00000,1023.46594
1294.00000,801.04272
1296.00000,619.74414
1298.00000,489.51505
1300.00000,400.50967
1302.00000,334.18729
1304.00000,283.88135
1306.00000,267.87973
1308.00000,311.36908
1310.00000,337.78842
1312.00000,364.12955
1314.00000,440.45517
1316.00000,463.96683
1318.00000,484.99857
1320.00000,510.82651
1322.00000,501.48242
1324.00000,467.85904
1326.00000,502.99216
1328.00000,585.88385
1330.00000,582.32617
1332.00000,496.93887
1334.00000,558.48474
1336.00000,455.64578
1338.00000,439.67407
1340.00000,619.64337
1342.00000,628.91241
1344.00000,833.24432
1346.00000,1108.41248
1348.00000,1438.20190
1350.00000,1957.32349
1352.00000,2511.55591
1354.00000,3118.13916
1356.00000,3645.71460
1358.00000,3849.70874
1360.00000,3627.26270
1362.00000,3199.35449
1364.00000,2675.36914
1366.00000,2263.87964
1368.00000,2118.92529
1370.00000,2083.53101
1372.00000,2178.71851
1374.00000,2225.55273
1376.00000,2113.79028
1378.00000,1932.26611
1380.00000,1640.10120
1382.00000,1553.33618
1384.00000,1581.58447
1386.00000,1568.80701
1388.00000,1864.94043
1390.00000,2032.21301
1392.00000,1977.16089
1394.00000,1779.02393
1396.00000,1391.84485
1398.00000,939.51385
1400.00000,643.48615
1402.00000,451.59598
1404.00000,252.96297
1406.00000,191.13922
1408.00000,151.34222
1410.00000,93.68920
1412.00000,48.81654
1414.00000,25.36818
1416.00000,14.41824
1418.00000,13.63858
1420.00000,22.86244
1422.00000,30.89485
1424.00000,34.56198
1426.00000,104.96944
1428.00000,158.94008
1430.00000,175.84697
1432.00000,250.08296
1434.00000,332.27341
1436.00000,446.66080
1438.00000,587.95197
1440.00000,761.93488
1442.00000,1019.99738
1444.00000,1233.21692
1446.00000,1457.26306
1448.00000,1659.26624
1450.00000,1705.34778
1452.00000,1750.42505
1454.00000,1795.03394
1456.00000,1846.15027
1458.00000,1924.34192
1460.00000,1982.91309
1462.00000,1989.98999
1464.00000,1876.51208
1466.00000,1720.48291
1468.00000,1648.89502
1470.00000,1532.11694
1472.00000,1511.90186
1474.00000,1588.73718
1476.00000,1760.64124
1478.00000,2170.59766
1480.00000,2514.10327
1482.00000,2724.87256
1484.00000,2781.63550
1486.00000,2636.70142
1488.00000,2451.84277
1490.00000,2196.23193
1492.00000,1896.50635
1494.00000,1601.29578
1496.00000,1278.66748
1498.00000,997.41211
1500.00000,765.71594
1502.00000,604.15430
1504.00000,505.63132
1506.00000,337.02667
1508.00000,233.66721
1510.00000,153.52689
1512.00000,51.53577
1514.00000,65.69052
1516.00000,43.62840
1518.00000,11.40195
1520.00000,18.84464
1522.00000,34.69227
1524.00000,52.66491
1526.00000,48.10824
1528.00000,54.12598
1530.00000,83.72359
1532.00000,93.17219
1534.00000,145.29022
1536.00000,233.37326
1538.00000,299.28729
1540.00000,352.13351
1542.00000,517.07990
1544.00000,742.42242
1546.00000,1040.98010
1548.00000,1337.46436
1550.00000,1466.39502
1552.00000,1658.89124
1554.00000,1700.17163
1556.00000,1619.64514
1558.00000,1648.04053
1560.00000,1564.11597
1562.00000,1534.89807
1564.00000,1673.30823
1566.00000,1909.90344
1568.00000,2160.34644
1570.00000,2521.89063
1572.00000,3045.06226
1574.00000,3630.88330
1576.00000,4131.20850
1578.00000,4479.93994
1580.00000,4498.36768
1582.00000,4219.17480
1584.00000,3754.76929
1586.00000,3177.44287
1588.00000,2709.30542
1590.00000,2288.07300
1592.00000,1933.67175
1594.00000,1758.19580
1596.00000,1663.49622
1598.00000,1557.73767
1600.00000,1543.38220
1602.00000,1613.70081
1604.00000,1549.06958
1606.00000,1363.39368
1608.00000,1115.47070
1610.00000,860.94940
1612.00000,651.90240
1614.00000,511.03287
1616.00000,362.20236
1618.00000,310.17758
1620.00000,306.82614
1622.00000,163.92928
1624.00000,194.17967
1626.00000,171.33641
1628.00000,92.34767
1630.00000,131.81363
1632.00000,96.55275
1634.00000,91.71845
1636.00000,71.89449
1638.00000,31.69314
1640.00000,77.08607
1642.00000,42.17018
1644.00000,8.11186
1646.00000,24.75627
1648.00000,30.04167
1650.00000,12.59676
1652.00000,36.97337
1654.00000,53.14321
1656.00000,42.61601
1658.00000,69.87011
1660.00000,82.86549
1662.00000,89.62371
1664.00000,112.06883
1666.00000,122.36063
1668.00000,89.57411
1670.00000,168.05084
1672.00000,173.70883
1674.00000,106.37817
1676.00000,187.12613
1678.00000,100.43261
1680.00000,109.32649
1682.00000,173.91866
1684.00000,90.90639
1686.00000,83.53474
1688.00000,136.09677
1690.00000,113.87466
1692.00000,72.55506
1694.00000,152.20520
1696.00000,139.03531
1698.00000,112.11186
1700.00000,108.66341
1702.00000,82.15691
1704.00000,68.76768
1706.00000,90.01067
1708.00000,124.58066
1710.00000,146.45096
1712.00000,141.59328
1714.00000,103.40112
1716.00000,127.72153
1718.00000,167.95973
1720.00000,156.11281
1722.00000,187.12498
1724.00000,257.03171
1726.00000,254.91394
1728.00000,206.98007
1730.00000,238.25140
1732.00000,258.72861
1734.00000,244.22774
1736.00000,221.07877
1738.00000,194.80818
1740.00000,151.99165
1742.00000,168.64998
1744.00000,145.37744
1746.00000,102.94918
1748.00000,135.54231
1750.00000,62.09347
1752.00000,146.83827
1754.00000,205.68559
1756.00000,87.49281
1758.00000,173.31720
1760.00000,191.11029
1762.00000,142.81956
1764.00000,202.64285
1766.00000,320.02310
1768.00000,201.74629
1770.00000,281.34839
1772.00000,349.90970
1774.00000,220.49077
1776.00000,381.73053
1778.00000,384.92404
1780.00000,327.12930
1782.00000,356.64371
1784.00000,359.27826
1786.00000,376.77414
1788.00000,526.07764
1790.00000,501.31638
1792.00000,332.92569
1794.00000,556.44354
1796.00000,494.47357
1798.00000,480.05328
1800.00000,567.93243
1802.00000,432.86945
1804.00000,578.82745
1806.00000,572.71796
1808.00000,578.07275
1810.00000,730.77661
1812.00000,599.66217
1814.00000,748.98822
1816.00000,845.45105
1818.00000,796.06360
1820.00000,923.07074
1822.00000,975.58105
1824.00000,1008.90576
1826.00000,994.88940
1828.00000,960.07257
1830.00000,1055.44666
1832.00000,1076.81006
1834.00000,1130.74597
1836.00000,1184.35974
1838.00000,1136.24524
1840.00000,1241.19421
1842.00000,1346.53369
1844.00000,1380.37390
1846.00000,1387.23657
1848.00000,1415.33252
1850.00000,1557.77539
1852.00000,1541.25525
1854.00000,1514.17114
1856.00000,1646.69971
1858.00000,1383.07446
1860.00000,1284.23022
1862.00000,951.02789
1864.00000,244.15303
1866.00000,29.95420
1868.00000,4.46329
1870.00000,-0.80203
1872.00000,0.51780
1874.00000,0.08809
1876.00000,0.13767
1878.00000,-0.59378
1880.00000,1.51573
1882.00000,-1.48921
1884.00000,-2.72702
1886.00000,64.92230
1888.00000,54.92902
1890.00000,-0.16920
1892.00000,22.42193
1894.00000,9.00056
1896.00000,-2.41269
1898.00000,1.73995
1900.00000,-0.56733
1902.00000,8.89736
1904.00000,84.85043
1906.00000,36.11454
1908.00000,72.18203
1910.00000,280.56134
1912.00000,75.34465
1914.00000,61.36774
1916.00000,178.77005
1918.00000,165.62564
1920.00000,158.50638
1922.00000,130.05504
1924.00000,171.09979
1926.00000,230.33084
1928.00000,217.17816
1930.00000,234.91875
1932.00000,259.24426
1934.00000,218.55148
1936.00000,179.59192
1938.00000,255.35814
1940.00000,260.25806
1942.00000,126.46877
1944.00000,151.54648
1946.00000,318.85632
1948.00000,57.75642
1950.00000,164.29941
1952.00000,252.55498
1954.00000,110.42419
1956.00000,246.98663
1958.00000,148.92566
1960.00000,151.52243
1962.00000,229.95909
1964.00000,165.63989
1966.00000,243.40111
1968.00000,223.08604
1970.00000,209.54758
1972.00000,250.21182
1974.00000,205.49385
1976.00000,287.71005
1978.00000,318.90967
1980.00000,242.10596
1982.00000,208.63695
1984.00000,268.21066
1986.00000,217.42804
1988.00000,176.05327
1990.00000,204.32263
1992.00000,178.84271
1994.00000,182.32352
1996.00000,99.88528
1998.00000,74.75793
2000.00000,95.82682
2002.00000,105.81740
2004.00000,112.92628
2006.00000,86.21521
2008.00000,74.16353
2010.00000,146.36400
2012.00000,146.87773
2014.00000,98.18194
2016.00000,151.35182
2018.00000,139.27794
2020.00000,94.46537
2022.00000,105.33213
2024.00000,160.12793
2026.00000,158.69354
2028.00000,136.02980
2030.00000,122.80474
2032.00000,119.44237
2034.00000,123.13315
2036.00000,141.24353
2038.00000,127.23389
2040.00000,102.55458
2042.00000,110.47710
2044.00000,107.63399
2046.00000,93.86083
2048.00000,118.03777
2050.00000,149.91917
2052.00000,108.89718
2054.00000,116.77352
2056.00000,103.79797
2058.00000,61.80090
2060.00000,80.26765
2062.00000,120.59116
2064.00000,110.15998
2066.00000,91.03391
2068.00000,102.16364
2070.00000,86.71626
2072.00000,91.70923
2074.00000,135.56256
2076.00000,149.17879
2078.00000,94.63785
2080.00000,114.71898
2082.00000,114.75282
2084.00000,81.24027
2086.00000,92.54571
2088.00000,130.20116
2090.00000,122.64070
2092.00000,115.02615
2094.00000,133.54050
2096.00000,133.95084
2098.00000,164.86925
2100.00000,151.30365
2102.00000,142.82219
2104.00000,202.62671
2106.00000,169.69672
2108.00000,144.94530
2110.00000,167.83875
2112.00000,186.86868
2114.00000,176.92313
2116.00000,171.64592
2118.00000,167.97151
2120.00000,179.56204
2122.00000,212.44849
2124.00000,197.87657
2126.00000,204.07646
2128.00000,191.71341
2130.00000,152.22823
2132.00000,210.00352
2134.00000,177.06096
2136.00000,144.36374
2138.00000,175.69159
2140.00000,158.17261
2142.00000,153.63135
2144.00000,182.27188
2146.00000,196.01524
2148.00000,167.74916
2150.00000,153.09084
2152.00000,146.26790
2154.00000,160.10771
2156.00000,167.68205
2158.00000,121.45968
2160.00000,127.16931
2162.00000,157.19507
2164.00000,166.81125
2166.00000,158.45313
2168.00000,134.33777
2170.00000,135.56161
2172.00000,159.73767
2174.00000,161.09903
2176.00000,116.88773
2178.00000,95.64943
2180.00000,109.84351
2182.00000,124.21514
2184.00000,118.97073
2186.00000,123.22205
2188.00000,109.14903
2190.00000,96.72124
2192.00000,109.02839
2194.00000,103.91416
2196.00000,116.47654
2198.00000,119.32738
2200.00000,114.71134
2202.00000,142.50861
2204.00000,118.79449
2206.00000,117.62332
2208.00000,145.98975
2210.00000,139.46429
2212.00000,136.13853
2214.00000,167.26364
2216.00000,171.48671
2218.00000,137.95355
2220.00000,151.73936
2222.00000,152.88564
2224.00000,163.62305
2226.00000,187.78963
2228.00000,186.00424
2230.00000,175.17085
2232.00000,148.35918
2234.00000,141.82208
2236.00000,160.57539
2238.00000,134.21756
2240.00000,112.17865
2242.00000,117.00249
2244.00000,112.20924
2246.00000,90.86408
2248.00000,153.04044
2250.00000,135.02127
2252.00000,91.39766
2254.00000,150.49426
2256.00000,141.86609
2258.00000,111.25438
2260.00000,166.76247
2262.00000,223.67181
2264.00000,114.16965
2266.00000,93.17435
2268.00000,165.30515
2270.00000,176.64261
2272.00000,97.85265
2274.00000,115.94159
2276.00000,136.30141
2278.00000,117.09370
2280.00000,115.17712
2282.00000,134.29192
2284.00000,58.68089
2286.00000,58.67541
2288.00000,148.58662
2290.00000,130.59604
2292.00000,86.49471
2294.00000,103.22871
2296.00000,120.79685
2298.00000,110.67873
2300.00000,185.19006
2302.00000,163.40355
2304.00000,95.50340
2306.00000,123.11353
2308.00000,193.48250
2310.00000,90.63931
2312.00000,102.22291
2314.00000,174.40231
2316.00000,73.41035
2318.00000,77.74376
2320.00000,121.58926
2322.00000,114.23311
2324.00000,83.69306
2326.00000,93.22009
2328.00000,79.34369
2330.00000,80.15343
2332.00000,117.38187
2334.00000,141.86072
2336.00000,128.00836
2338.00000,113.11864
2340.00000,112.74311
2342.00000,132.86031
2344.00000,172.62123
2346.00000,126.43560
2348.00000,156.95857
2350.00000,211.62082
2352.00000,84.86533
2354.00000,133.98492
2356.00000,185.26756
2358.00000,146.28387
2360.00000,135.61761
2362.00000,163.33882
2364.00000,180.19896
2366.00000,165.15446
2368.00000,133.07800
2370.00000,119.83971
2372.00000,159.96297
2374.00000,155.93771
2376.00000,126.11491
2378.00000,156.09596
2380.00000,158.86354
2382.00000,137.56998
2384.00000,146.84935
2386.00000,168.40202
2388.00000,127.82635
2390.00000,142.72438
2392.00000,141.07605
2394.00000,108.23030
2396.00000,118.33003
2398.00000,69.59388
2400.00000,69.09206
2402.00000,98.34908
2404.00000,97.74947
2406.00000,155.16585
2408.00000,172.78865
2410.00000,151.02040
2412.00000,145.20906
2414.00000,160.37845
2416.00000,171.15656
2418.00000,216.08621
2420.00000,236.33510
2422.00000,181.27695
2424.00000,189.62207
2426.00000,248.89777
2428.00000,221.75342
2430.00000,168.35793
2432.00000,291.02161
2434.00000,270.24814
2436.00000,208.14992
2438.00000,261.11411
2440.00000,338.13043
2442.00000,289.66748
2444.00000,275.98450
2446.00000,305.74576
2448.00000,315.96939
2450.00000,377.33716
2452.00000,416.24213
2454.00000,416.60980
2456.00000,405.02353
2458.00000,408.85541
2460.00000,458.98584
2462.00000,490.49301
2464.00000,498.03796
2466.00000,512.68707
2468.00000,511.83899
2470.00000,548.54169
2472.00000,569.14276
2474.00000,546.05981
2476.00000,555.14478
2478.00000,590.34399
2480.00000,623.08276
2482.00000,581.43927
2484.00000,462.34296
2486.00000,425.65509
2488.00000,396.42136
2490.00000,243.23528
2492.00000,35.04392
2494.00000,-2.18017
2496.00000,8.51745
2498.00000,9.00101
2500.00000,19.59774
2502.00000,39.66318
2504.00000,23.35432
2506.00000,40.46611
2508.00000,70.70812
2510.00000,70.24710
2512.00000,92.71926
2514.00000,80.63699
2516.00000,72.80222
2518.00000,96.91010
2520.00000,112.42603
2522.00000,148.28856
2524.00000,182.10912
2526.00000,176.11473
2528.00000,130.61697
2530.00000,102.30785
2532.00000,143.84439
2534.00000,143.83817
2536.00000,95.08408
2538.00000,157.43172
2540.00000,173.43744
2542.00000,145.45033
2544.00000,155.81781
2546.00000,193.27655
2548.00000,153.01318
2550.00000,187.71031
2552.00000,234.01108
2554.00000,206.34018
2556.00000,241.69791
2558.00000,212.08891
2560.00000,137.25496
2562.00000,123.15156
2564.00000,163.53717
2566.00000,105.95735
2568.00000,109.55944
2570.00000,164.28584
2572.00000,144.74712
2574.00000,131.34604
2576.00000,141.82646
2578.00000,158.29683
2580.00000,163.21591
2582.00000,163.16537
2584.00000,184.06953
2586.00000,137.51341
2588.00000,84.47211
2590.00000,136.08716
2592.00000,158.86145
2594.00000,137.31731
2596.00000,140.15477
2598.00000,160.41959
2600.00000,123.17744
2602.00000,171.55762
2604.00000,183.29271
2606.00000,131.15802
2608.00000,147.82481
2610.00000,150.30862
2612.00000,136.23544
2614.00000,188.24167
2616.00000,262.83893
2618.00000,170.44446
2620.00000,132.52524
2622.00000,192.32794
2624.00000,234.04936
2626.00000,215.73093
2628.00000,259.46091
2630.00000,298.03076
2632.00000,222.41353
2634.00000,137.74281
2636.00000,306.33731
2638.00000,321.73599
2640.00000,247.47078
2642.00000,292.36252
2644.00000,307.01312
2646.00000,223.21461
2648.00000,237.02299
2650.00000,301.94400
2652.00000,224.23567
2654.00000,200.86037
2656.00000,242.56981
2658.00000,205.22049
2660.00000,138.71072
2662.00000,276.04163
2664.00000,235.45078
2666.00000,166.55096
2668.00000,209.80222
2670.00000,203.98434
2672.00000,221.97560
2674.00000,261.60516
2676.00000,236.92780
2678.00000,158.80882
2680.00000,191.14389
2682.00000,219.54428
2684.00000,227.37411
2686.00000,258.47372
2688.00000,270.82211
2690.00000,184.34970
2692.00000,222.42853
2694.00000,322.65756
2696.00000,260.92404
2698.00000,225.52153
2700.00000,253.41595
2702.00000,250.86778
2704.00000,222.13979
2706.00000,273.41513
2708.00000,219.10097
2710.00000,204.83731
2712.00000,245.84033
2714.00000,187.00217
2716.00000,208.68831
2718.00000,266.70389
2720.00000,232.90558
2722.00000,161.89607
2724.00000,255.69684
2726.00000,253.05592
2728.00000,177.19159
2730.00000,205.57068
2732.00000,303.68283
2734.00000,200.87582
2736.00000,220.47185
2738.00000,295.17868
2740.00000,168.02635
2742.00000,182.01375
2744.00000,325.15213
2746.00000,265.97592
2748.00000,105.48553
2750.00000,295.51550
2752.00000,230.61067
2754.00000,157.60098
2756.00000,260.45770
2758.00000,261.54208
2760.00000,132.98999
2762.00000,244.78067
2764.00000,350.85617
2766.00000,209.50427
2768.00000,242.11035
2770.00000,368.57959
2772.00000,359.54880
2774.00000,280.72699
2776.00000,355.24753
2778.00000,391.94592
2780.00000,352.59494
2782.00000,349.18671
2784.00000,404.51187
2786.00000,373.34909
2788.00000,413.45566
2790.00000,475.69980
2792.00000,477.79968
2794.00000,497.86597
2796.00000,560.85870
2798.00000,592.02911
2800.00000,595.90277
2802.00000,619.34253
2804.00000,607.21680
2806.00000,618.51544
2808.00000,676.75104
2810.00000,723.98407
2812.00000,717.75732
2814.00000,777.84906
2816.00000,793.33972
2818.00000,786.89581
2820.00000,884.62018
2822.00000,894.16028
2824.00000,932.23907
2826.00000,1037.20825
2828.00000,1063.22009
2830.00000,953.12268
2832.00000,1082.81445
2834.00000,1172.62744
2836.00000,1161.95447
2838.00000,1391.57617
2840.00000,1422.40686
2842.00000,1513.71545
2844.00000,1677.52234
2846.00000,1682.10510
2848.00000,1748.20996
2850.00000,2006.65308
2852.00000,2207.31714
2854.00000,2229.05225
2856.00000,2336.37354
2858.00000,2548.55298
2860.00000,2665.05981
2862.00000,2800.65723
2864.00000,3081.63013
2866.00000,3048.12524
2868.00000,3123.91968
2870.00000,3425.88525
2872.00000,3671.63818
2874.00000,3736.63110
2876.00000,3766.81885
2878.00000,3442.89868
2880.00000,2735.91748
2882.00000,1911.73987
2884.00000,690.64185
2886.00000,24.33460
2888.00000,5.22865
2890.00000,0.01295
2892.00000,-0.74834
2894.00000,0.43987
2896.00000,-0.25385
2898.00000,0.15582
2900.00000,4.93582
2902.00000,29.48687
2904.00000,128.79765
2906.00000,240.25648
2908.00000,320.02939
2910.00000,500.19171
2912.00000,502.56323
2914.00000,466.26627
2916.00000,555.91357
2918.00000,570.46295
2920.00000,638.37463
2922.00000,658.21710
2924.00000,640.87317
2926.00000,701.56879
2928.00000,671.36127
2930.00000,773.43127
2932.00000,823.73389
2934.00000,708.20874
2936.00000,843.19452
2938.00000,779.16504
2940.00000,671.37268
2942.00000,675.11462
2944.00000,546.95093
2946.00000,397.09735
2948.00000,413.98541
2950.00000,414.10944
2952.00000,272.69299
2954.00000,369.21735
2956.00000,318.88956
2958.00000,243.94273
2960.00000,347.47879
2962.00000,378.37479
2964.00000,266.26950
2966.00000,229.38692
2968.00000,242.67517
2970.00000,175.12811
2972.00000,269.48325
2974.00000,212.36804
2976.00000,122.64227
2978.00000,195.70221
2980.00000,166.54158
2982.00000,89.40512
2984.00000,105.89713
2986.00000,137.21635
2988.00000,32.49798
2990.00000,7.31958
2992.00000,18.38311
2994.00000,27.12067
2996.00000,41.92471
2998.00000,11.46236
3000.00000,-14.59038
3002.00000,29.19835
3004.00000,84.05152
3006.00000,51.45424
3008.00000,79.39372
3010.00000,55.12188
3012.00000,-3.47696
3014.00000,39.34827
3016.00000,77.13316
3018.00000,-17.00113
3020.00000,119.27587
3022.00000,368.84360
3024.00000,102.56586
3026.00000,393.12686
3028.00000,605.14618
3030.00000,438.93777
3032.00000,557.13843
3034.00000,715.64178
3036.00000,667.27405
3038.00000,734.45233
3040.00000,1012.53644
3042.00000,937.27966
3044.00000,1067.92896
3046.00000,1262.70044
3048.00000,1281.58643
3050.00000,1403.83765
3052.00000,1786.55603
3054.00000,1801.54285
3056.00000,1724.34033
3058.00000,1999.80188
3060.00000,1839.15063
3062.00000,1737.67786
3064.00000,1769.50696
3066.00000,1671.92212
3068.00000,1461.55408
3070.00000,1288.66003
3072.00000,1092.65808
3074.00000,947.01709
3076.00000,902.67395
3078.00000,659.71722
3080.00000,677.32184
3082.00000,613.56549
3084.00000,302.90570
3086.00000,469.26120
3088.00000,331.55240
3090.00000,154.03055
3092.00000,250.83812
3094.00000,260.17642
3096.00000,54.40781
3098.00000,122.17764
3100.00000,267.49335
3102.00000,101.36861
3104.00000,59.75157
3106.00000,277.44968
3108.00000,260.68271
3110.00000,35.40266
3112.00000,170.96469
3114.00000,74.65930
3116.00000,22.49750
3118.00000,205.48314
3120.00000,300.83322
3122.00000,83.36300
3124.00000,-30.21022
3126.00000,20.39419
3128.00000,99.40150
3130.00000,198.65578
3132.00000,71.29192
3134.00000,4.56854
3136.00000,86.67992
3138.00000,49.70132
3140.00000,-28.39011
3142.00000,149.74379
3144.00000,264.40924
3146.00000,94.71061
3148.00000,186.89844
3150.00000,376.17737
3152.00000,278.93124
3154.00000,112.24821
3156.00000,330.54364
3158.00000,312.24774
3160.00000,215.96889
3162.00000,293.03680
3164.00000,339.28015
3166.00000,40.90940
3168.00000,147.41086
3170.00000,335.24857
3172.00000,159.39706
3174.00000,78.70553
3176.00000,300.53458
3178.00000,242.41826
3180.00000,-29.94422
3182.00000,76.53941
3184.00000,282.32813
3186.00000,196.30365
3188.00000,177.98859
3190.00000,389.36606
3192.00000,243.35568
3194.00000,190.66377
3196.00000,288.17639
3198.00000,310.60489
3200.00000,228.73906
