300.00000,195.78433
302.00000,149.91797
304.00000,137.43317
306.00000,126.37606
308.00000,107.80549
310.00000,86.39032
312.00000,69.15961
314.00000,103.14691
316.00000,124.70515
318.00000,127.24500
320.00000,153.00705
322.00000,179.06796
324.00000,192.32729
326.00000,194.37236
328.00000,207.91156
330.00000,249.40511
332.00000,283.37820
334.00000,333.34207
336.00000,431.95303
338.00000,566.41351
340.00000,685.50891
342.00000,794.22900
344.00000,881.14240
346.00000,910.98846
348.00000,857.44702
350.00000,737.04492
352.00000,585.37201
354.00000,458.54660
356.00000,380.90350
358.00000,316.05551
360.00000,276.16275
362.00000,270.66302
364.00000,246.65004
366.00000,164.17677
368.00000,134.71667
370.00000,124.23000
372.00000,126.70992
374.00000,139.00677
376.00000,100.87703
378.00000,121.51100
380.00000,160.52373
382.00000,180.88460
384.00000,221.93527
386.00000,237.09311
388.00000,230.85121
390.00000,230.80714
392.00000,235.46776
394.00000,217.93936
396.00000,211.55363
398.00000,154.76447
400.00000,110.66301
402.00000,187.97104
404.00000,200.48720
406.00000,219.76279
408.00000,282.68930
410.00000,343.32858
412.00000,397.06714
414.00000,470.80389
416.00000,585.06787
418.00000,736.19318
420.00000,900.86987
422.00000,1064.40662
424.00000,1261.57214
426.00000,1474.60107
428.00000,1654.59302
430.00000,1789.89392
432.00000,1896.00293
434.00000,1972.65918
436.00000,2050.82129
438.00000,2166.39380
440.00000,2273.62183
442.00000,2331.93604
444.00000,2342.70068
446.00000,2317.98389
448.00000,2252.06494
450.00000,2153.42139
452.00000,2027.39136
454.00000,1882.51196
456.00000,1720.02234
458.00000,1525.43347
460.00000,1344.01221
462.00000,1181.71289
464.00000,1019.65302
466.00000,863.14685
468.00000,720.52222
470.00000,592.09564
472.00000,487.35129
474.00000,402.67987
476.00000,303.08200
478.00000,247.85786
480.00000,202.20454
482.00000,129.20547
484.00000,92.26434
486.00000,102.62389
488.00000,100.93589
490.00000,72.18601
492.00000,54.74517
494.00000,55.15533
496.00000,69.07726
498.00000,73.95389
500.00000,67.22864
502.00000,68.22633
504.00000,50.68953
506.00000,73.82038
508.00000,126.06787
510.00000,142.22108
512.00000,158.35060
514.00000,203.41620
516.00000,228.49847
518.00000,230.78889
520.00000,298.72614
522.00000,423.59116
524.00000,548.49731
526.00000,638.38269
528.00000,672.44189
530.00000,614.94824
532.00000,504.58060
534.00000,368.66525
536.00000,255.07698
538.00000,215.02258
540.00000,172.41359
542.00000,129.45366
544.00000,113.61133
546.00000,122.79713
548.00000,132.68152
550.00000,135.43164
552.00000,143.57043
554.00000,151.39432
556.00000,150.10352
558.00000,200.74297
560.00000,264.36096
562.00000,300.58301
564.00000,332.23425
566.00000,411.56601
568.00000,527.64508
570.00000,618.61578
572.00000,639.36365
574.00000,598.28699
576.00000,530.60114
578.00000,496.48853
580.00000,503.35849
582.00000,517.04761
584.00000,538.14038
586.00000,621.58057
588.00000,718.24402
590.00000,798.90637
592.00000,897.61560
594.00000,958.48859
596.00000,1039.44434
598.00000,1176.01917
600.00000,1332.90173
602.00000,1465.38391
604.00000,1564.33545
606.00000,1643.45544
608.00000,1735.45715
610.00000,1859.45068
612.00000,1970.79248
614.00000,2043.45129
616.00000,2062.06006
618.00000,2015.50256
620.00000,1891.36450
622.00000,1655.33923
624.00000,1369.48523
626.00000,1106.82263
628.00000,883.53448
630.00000,703.01520
632.00000,564.02130
634.00000,449.74149
636.00000,349.72961
638.00000,280.00046
640.00000,243.53633
642.00000,207.49393
644.00000,162.88208
646.00000,141.08778
648.00000,149.63895
650.00000,141.65959
652.00000,123.97449
654.00000,125.05629
656.00000,129.55136
658.00000,151.40675
660.00000,165.21997
662.00000,164.45279
664.00000,182.31004
666.00000,229.51378
668.00000,292.06552
670.00000,349.43619
672.00000,422.78207
674.00000,563.33344
676.00000,711.59509
678.00000,839.20599
680.00000,886.82922
682.00000,798.31036
684.00000,651.83435
686.00000,449.89697
688.00000,264.80606
690.00000,171.09172
692.00000,128.62357
694.00000,88.94656
696.00000,68.64496
698.00000,74.60168
700.00000,85.71616
702.00000,110.21205
704.00000,133.38293
706.00000,152.28348
708.00000,186.95390
710.00000,251.90329
712.00000,307.72852
714.00000,338.06717
716.00000,365.92764
718.00000,419.25168
720.00000,483.09659
722.00000,522.60870
724.00000,531.48352
726.00000,527.50397
728.00000,514.34656
730.00000,457.36078
732.00000,398.71536
734.00000,354.81180
736.00000,314.93170
738.00000,335.37619
740.00000,415.56912
742.00000,525.14948
744.00000,601.37756
746.00000,576.60614
748.00000,482.18903
750.00000,367.99304
752.00000,277.74725
754.00000,223.85973
756.00000,174.47461
758.00000,135.21727
760.00000,113.31850
762.00000,99.29882
764.00000,81.97489
766.00000,80.06747
768.00000,95.59386
770.00000,104.15183
772.00000,90.97696
774.00000,88.29678
776.00000,113.27709
778.00000,120.43229
780.00000,103.63176
782.00000,118.94539
784.00000,117.90894
786.00000,112.31821
788.00000,110.83828
790.00000,92.92643
792.00000,64.75380
794.00000,84.40623
796.00000,74.20761
798.00000,40.48224
800.00000,109.75139
802.00000,125.12144
804.00000,142.59895
806.00000,198.14873
808.00000,256.45157
810.00000,341.70480
812.00000,356.72211
814.00000,305.50793
816.00000,260.91373
818.00000,239.93285
820.00000,179.11110
822.00000,129.05765
824.00000,103.59863
826.00000,79.99680
828.00000,93.46422
830.00000,105.58920
832.00000,102.71909
834.00000,116.01277
836.00000,157.96059
838.00000,153.46452
840.00000,137.20221
842.00000,133.93475
844.00000,134.79163
846.00000,151.43614
848.00000,153.65723
850.00000,136.94521
852.00000,127.12646
854.00000,136.52014
856.00000,125.64444
858.00000,113.03195
860.00000,115.64034
862.00000,118.19974
864.00000,104.22334
866.00000,107.00483
868.00000,100.83718
870.00000,79.82237
872.00000,80.58898
874.00000,71.37669
876.00000,52.56579
878.00000,46.34839
880.00000,64.04456
882.00000,84.32165
884.00000,66.87084
886.00000,48.87052
888.00000,65.27202
890.00000,100.96808
892.00000,142.88184
894.00000,129.07594
896.00000,100.39899
898.00000,105.68544
900.00000,81.07307
902.00000,75.83387
904.00000,89.00921
906.00000,90.13957
908.00000,77.02541
910.00000,73.76205
912.00000,82.46577
914.00000,71.17230
916.00000,43.79592
918.00000,61.36471
920.00000,77.08545
922.00000,67.41705
924.00000,53.01595
926.00000,64.08983
928.00000,98.19860
930.00000,107.71430
932.00000,102.57378
934.00000,118.22713
936.00000,140.12184
938.00000,140.47847
940.00000,125.79372
942.00000,115.82915
944.00000,132.94878
946.00000,195.43210
948.00000,210.99448
950.00000,224.27859
952.00000,303.92685
954.00000,379.11319
956.00000,449.53629
958.00000,532.56299
960.00000,646.81805
962.00000,759.10638
964.00000,766.54419
966.00000,795.90125
968.00000,814.37952
970.00000,742.26129
972.00000,658.88641
974.00000,558.89484
976.00000,468.96942
978.00000,417.88226
980.00000,396.20438
982.00000,375.96863
984.00000,381.30734
986.00000,411.23181
988.00000,464.22189
990.00000,562.63678
992.00000,682.21552
994.00000,897.29706
996.00000,1267.12109
998.00000,1712.87903
1000.00000,2018.07629
1002.00000,2030.06079
1004.00000,1743.99390
1006.00000,1277.03223
1008.00000,801.24603
1010.00000,472.45932
1012.00000,298.12952
1014.00000,209.25713
1016.00000,163.83810
1018.00000,173.42543
1020.00000,167.77895
1022.00000,201.02905
1024.00000,307.03198
1026.00000,399.83774
1028.00000,521.05463
1030.00000,602.21033
1032.00000,617.74994
1034.00000,613.95667
1036.00000,579.14960
1038.00000,494.77597
1040.00000,418.47556
1042.00000,373.94000
1044.00000,316.92981
1046.00000,318.28613
1048.00000,349.25320
1050.00000,383.19910
1052.00000,435.83368
1054.00000,508.54919
1056.00000,619.27899
1058.00000,759.81116
1060.00000,889.90131
1062.00000,956.08856
1064.00000,919.80701
1066.00000,797.71881
1068.00000,673.19263
1070.00000,596.90320
1072.00000,508.47412
1074.00000,453.93198
1076.00000,450.27368
1078.00000,498.54831
1080.00000,633.11804
1082.00000,878.63422
1084.00000,1121.64294
1086.00000,1215.74097
1088.00000,1083.05200
1090.00000,773.48163
1092.00000,495.94650
1094.00000,354.06351
1096.00000,318.22989
1098.00000,317.38095
1100.00000,333.61029
1102.00000,418.78665
1104.00000,545.60852
1106.00000,631.51147
1108.00000,665.60638
1110.00000,674.08087
1112.00000,617.94647
1114.00000,491.56311
1116.00000,371.82629
1118.00000,298.99142
1120.00000,257.64453
1122.00000,205.11140
1124.00000,135.28180
1126.00000,102.32498
1128.00000,98.67039
1130.00000,90.42152
1132.00000,82.93646
1134.00000,102.59788
1136.00000,106.25146
1138.00000,115.84644
1140.00000,149.00294
1142.00000,183.68855
1144.00000,202.71436
1146.00000,273.84750
1148.00000,376.21844
1150.00000,493.43137
1152.00000,671.48047
1154.00000,912.31433
1156.00000,1166.41980
1158.00000,1356.74280
1160.00000,1430.82544
1162.00000,1387.18896
1164.00000,1216.64478
1166.00000,987.47443
1168.00000,775.40851
1170.00000,612.63940
1172.00000,520.58405
1174.00000,487.13095
1176.00000,496.78998
1178.00000,536.27783
1180.00000,578.84229
1182.00000,581.27802
1184.00000,558.55151
1186.00000,524.81494
1188.00000,482.49948
1190.00000,480.44501
1192.00000,493.12183
1194.00000,477.26877
1196.00000,449.52939
1198.00000,469.58646
1200.00000,475.85394
1202.00000,491.96796
1204.00000,502.06967
1206.00000,433.77139
1208.00000,329.83163
1210.00000,237.59360
1212.00000,174.88969
1214.00000,138.17516
1216.00000,144.42717
1218.00000,274.38248
1220.00000,455.70554
1222.00000,697.76733
1224.00000,1095.32581
1226.00000,1541.38611
1228.00000,1912.53760
1230.00000,2051.15527
1232.00000,1875.90210
1234.00000,1500.60437
1236.00000,1155.45959
1238.00000,967.87360
1240.00000,923.86188
1242.00000,915.64160
1244.00000,831.62122
1246.00000,669.61707
1248.00000,500.68625
1250.00000,367.20270
1252.00000,269.97119
1254.00000,309.29883
1256.00000,389.56329
1258.00000,417.99527
1260.00000,428.59085
1262.00000,471.54868
1264.00000,490.85184
1266.00000,512.51715
1268.00000,615.87329
1270.00000,821.76953
1272.00000,1102.55115
1274.00000,1525.52454
1276.00000,2017.67188
1278.00000,2404.11011
1280.00000,2665.08740
1282.00000,2712.15869
1284.00000,2513.21973
1286.00000,2124.87744
1288.00000,1660.46118
1290.00000,1256.56689
1292.00000,954.53723
1294.00000,729.68829
1296.00000,553.14935
1298.00000,424.22775
1300.00000,328.85898
1302.00000,269.78635
1304.00000,225.65550
1306.00000,178.03535
1308.00000,240.26566
1310.00000,320.10760
1312.00000,362.18680
1314.00000,411.53302
1316.00000,452.70844
1318.00000,460.99673
1320.00000,433.66257
1322.00000,418.44183
1324.00000,468.10831
1326.00000,519.72302
1328.00000,552.14203
1330.00000,570.77319
1332.00000,587.42780
1334.00000,600.01740
1336.00000,513.72101
1338.00000,505.46481
1340.00000,639.24066
1342.00000,719.55463
1344.00000,889.14514
1346.00000,1200.57031
1348.00000,1596.90979
1350.00000,2062.97998
1352.00000,2684.47949
1354.00000,3334.07642
1356.00000,3797.50586
1358.00000,3939.98730
1360.00000,3761.25537
1362.00000,3319.61646
1364.00000,2789.84961
1366.00000,2337.57056
1368.00000,2085.87354
1370.00000,2092.55664
1372.00000,2140.79834
1374.00000,2188.56885
1376.00000,2178.88574
1378.00000,1966.13672
1380.00000,1696.48157
1382.00000,1532.29944
1384.00000,1542.88037
1386.00000,1685.37158
1388.00000,1857.06567
1390.00000,2013.55774
1392.00000,1960.20471
1394.00000,1681.32666
1396.00000,1372.51794
1398.00000,958.19226
1400.00000,568.40076
1402.00000,350.47302
1404.00000,264.99280
1406.00000,144.05792
1408.00000,95.80112
1410.00000,73.09138
1412.00000,30.72039
1414.00000,27.98295
1416.00000,14.73831
1418.00000,7.46219
1420.00000,13.07785
1422.00000,19.77785
1424.00000,34.03254
1426.00000,42.37413
1428.00000,74.01966
1430.00000,145.25029
1432.00000,222.33218
1434.00000,278.37839
1436.00000,387.94211
1438.00000,547.66449
1440.00000,715.89563
1442.00000,923.76630
1444.00000,1158.41248
1446.00000,1392.33228
1448.00000,1549.18750
1450.00000,1598.02124
1452.00000,1690.78284
1454.00000,1723.16492
1456.00000,1735.91907
1458.00000,1816.40271
1460.00000,1862.78650
1462.00000,1887.16406
1464.00000,1767.27722
1466.00000,1566.43408
1468.00000,1507.22961
1470.00000,1505.94946
1472.00000,1525.47729
1474.00000,1674.38000
1476.00000,2000.33301
1478.00000,2359.71826
1480.00000,2716.19971
1482.00000,2951.66284
1484.00000,2983.49097
1486.00000,2843.58838
1488.00000,2602.59888
1490.00000,2325.95190
1492.00000,2010.62671
1494.00000,1670.32446
1496.00000,1382.64136
1498.00000,1119.23914
1500.00000,882.52167
1502.00000,671.67163
1504.00000,495.96756
1506.00000,413.09955
1508.00000,283.24298
1510.00000,164.91418
1512.00000,128.45982
1514.00000,57.26431
1516.00000,53.72285
1518.00000,62.37102
1520.00000,50.48557
1522.00000,65.41427
1524.00000,71.48820
1526.00000,86.18986
1528.00000,85.64250
1530.00000,90.23122
1532.00000,174.81261
1534.00000,216.07643
1536.00000,270.32129
1538.00000,373.62665
1540.00000,496.92471
1542.00000,698.26788
1544.00000,893.88287
1546.00000,1139.73901
1548.00000,1482.42749
1550.00000,1779.92639
1552.00000,1919.21997
1554.00000,1937.18884
1556.00000,1902.49854
1558.00000,1829.17297
1560.00000,1725.62939
1562.00000,1765.00452
1564.00000,1901.93652
1566.00000,2084.66040
1568.00000,2415.41187
1570.00000,2781.94043
1572.00000,3230.90820
1574.00000,3789.95264
1576.00000,4348.09717
1578.00000,4718.19043
1580.00000,4708.47998
1582.00000,4427.82568
1584.00000,3950.76416
1586.00000,3242.03345
1588.00000,2742.55249
1590.00000,2338.98853
1592.00000,1944.63037
1594.00000,1695.96362
1596.00000,1592.35278
1598.00000,1539.22522
1600.00000,1514.24988
1602.00000,1511.84460
1604.00000,1457.92798
1606.00000,1267.02478
1608.00000,1019.40039
1610.00000,782.26324
1612.00000,579.92120
1614.00000,464.25916
1616.00000,359.04510
1618.00000,281.69962
1620.00000,249.10802
1622.00000,209.29578
1624.00000,186.06789
1626.00000,114.74268
1628.00000,50.38815
1630.00000,77.58382
1632.00000,98.38835
1634.00000,101.97791
1636.00000,81.24790
1638.00000,38.70317
1640.00000,16.39134
1642.00000,57.52613
1644.00000,70.48695
1646.00000,59.38589
1648.00000,72.11768
1650.00000,45.62009
1652.00000,54.94999
1654.00000,58.24763
1656.00000,54.37779
1658.00000,103.52938
1660.00000,55.49251
1662.00000,13.37716
1664.00000,23.82025
1666.00000,35.37246
1668.00000,58.94609
1670.00000,65.15453
1672.00000,87.33472
1674.00000,120.69163
1676.00000,98.55858
1678.00000,48.17887
1680.00000,50.61200
1682.00000,64.91716
1684.00000,58.99527
1686.00000,122.64541
1688.00000,84.89669
1690.00000,105.65152
1692.00000,165.92789
1694.00000,46.67852
1696.00000,77.93624
1698.00000,107.20552
1700.00000,107.89177
1702.00000,159.50967
1704.00000,127.20512
1706.00000,67.66521
1708.00000,104.00837
1710.00000,170.65639
1712.00000,120.74912
1714.00000,106.96355
1716.00000,103.25486
1718.00000,142.17928
1720.00000,196.92224
1722.00000,112.44332
1724.00000,170.80966
1726.00000,177.99231
1728.00000,103.95163
1730.00000,180.72771
1732.00000,134.62105
1734.00000,114.32524
1736.00000,113.23421
1738.00000,64.71886
1740.00000,103.55825
1742.00000,70.95025
1744.00000,49.08918
1746.00000,61.52266
1748.00000,24.60060
1750.00000,78.04858
1752.00000,54.58067
1754.00000,42.86589
1756.00000,130.69861
1758.00000,104.70798
1760.00000,117.91017
1762.00000,134.66551
1764.00000,110.10076
1766.00000,119.72282
1768.00000,179.78362
1770.00000,173.23718
1772.00000,142.16618
1774.00000,148.67337
1776.00000,104.85149
1778.00000,49.43946
1780.00000,137.25142
1782.00000,201.29578
1784.00000,55.73525
1786.00000,118.71666
1788.00000,111.80435
1790.00000,122.10716
1792.00000,236.20937
1794.00000,156.86623
1796.00000,254.60234
1798.00000,190.80916
1800.00000,122.73756
1802.00000,388.70380
1804.00000,189.63864
1806.00000,313.30054
1808.00000,399.67606
1810.00000,180.66919
1812.00000,486.36319
1814.00000,326.16989
1816.00000,295.45233
1818.00000,515.95032
1820.00000,401.05420
1822.00000,481.46893
1824.00000,501.77139
1826.00000,514.67212
1828.00000,637.14313
1830.00000,632.64813
1832.00000,578.41663
1834.00000,614.00073
1836.00000,686.48804
1838.00000,694.50958
1840.00000,737.61652
1842.00000,672.02765
1844.00000,651.11578
1846.00000,717.02600
1848.00000,617.98846
1850.00000,600.94244
1852.00000,653.42413
1854.00000,661.95691
1856.00000,609.11267
1858.00000,549.68768
1860.00000,479.65045
1862.00000,335.81226
1864.00000,166.42793
1866.00000,104.52217
1868.00000,42.93081
1870.00000,42.61903
1872.00000,47.35862
1874.00000,-0.07611
1876.00000,86.00978
1878.00000,62.73619
1880.00000,11.36612
1882.00000,47.43131
1884.00000,39.54924
1886.00000,35.27557
1888.00000,48.86251
1890.00000,79.53621
1892.00000,90.68067
1894.00000,23.75852
1896.00000,64.47812
1898.00000,146.86366
1900.00000,132.50140
1902.00000,79.20539
1904.00000,120.88787
1906.00000,102.30747
1908.00000,60.50014
1910.00000,104.78011
1912.00000,74.37123
1914.00000,116.16747
1916.00000,163.62590
1918.00000,132.69859
1920.00000,120.98074
1922.00000,159.99973
1924.00000,112.45693
1926.00000,80.59243
1928.00000,149.43951
1930.00000,83.82297
1932.00000,168.44409
1934.00000,146.31905
1936.00000,33.64444
1938.00000,216.54927
1940.00000,152.91483
1942.00000,93.18236
1944.00000,158.77522
1946.00000,170.99733
1948.00000,147.89932
1950.00000,171.42281
1952.00000,182.16620
1954.00000,159.40291
1956.00000,160.11481
1958.00000,115.70116
1960.00000,150.79015
1962.00000,143.59116
1964.00000,51.14218
1966.00000,172.47368
1968.00000,82.31740
1970.00000,54.92255
1972.00000,162.96567
1974.00000,63.31695
1976.00000,144.79945
1978.00000,127.93776
1980.00000,48.04662
1982.00000,100.97582
1984.00000,79.12316
1986.00000,85.22604
1988.00000,84.29435
1990.00000,89.11650
1992.00000,162.05554
1994.00000,122.21119
1996.00000,126.12802
1998.00000,137.93752
2000.00000,28.83048
2002.00000,18.49051
2004.00000,42.33778
2006.00000,72.00355
2008.00000,49.51965
2010.00000,46.61917
2012.00000,56.88794
2014.00000,48.97833
2016.00000,34.53337
2018.00000,47.97532
2020.00000,46.44224
2022.00000,31.69464
2024.00000,43.10999
2026.00000,72.29211
2028.00000,45.59448
2030.00000,32.77560
2032.00000,56.67990
2034.00000,42.33161
2036.00000,40.95148
2038.00000,47.20435
2040.00000,53.05772
2042.00000,61.12657
2044.00000,55.55669
2046.00000,39.40704
2048.00000,46.28780
2050.00000,67.18340
2052.00000,49.12384
2054.00000,29.17601
2056.00000,41.74770
2058.00000,51.92847
2060.00000,31.53719
2062.00000,55.11319
2064.00000,67.72962
2066.00000,76.13886
2068.00000,98.49397
2070.00000,87.95739
2072.00000,84.15152
2074.00000,87.67894
2076.00000,87.92385
2078.00000,89.75688
2080.00000,90.37740
2082.00000,101.00041
2084.00000,86.37083
2086.00000,37.79187
2088.00000,42.73299
2090.00000,111.51452
2092.00000,135.55052
2094.00000,91.57660
2096.00000,77.29948
2098.00000,61.68709
2100.00000,65.12933
2102.00000,93.66808
2104.00000,107.22978
2106.00000,77.00666
2108.00000,64.86337
2110.00000,71.34138
2112.00000,61.18016
2114.00000,39.49731
2116.00000,42.73708
2118.00000,86.97719
2120.00000,116.01623
2122.00000,74.55260
2124.00000,41.11360
2126.00000,84.48750
2128.00000,105.31856
2130.00000,63.47482
2132.00000,115.41808
2134.00000,143.85225
2136.00000,123.19366
2138.00000,118.77500
2140.00000,145.76872
2142.00000,110.45183
2144.00000,89.38334
2146.00000,93.61157
2148.00000,77.12620
2150.00000,79.67868
2152.00000,71.30077
2154.00000,70.10683
2156.00000,84.58600
2158.00000,81.80633
2160.00000,96.19377
2162.00000,115.15737
2164.00000,125.13141
2166.00000,131.26233
2168.00000,130.87999
2170.00000,133.88516
2172.00000,108.80686
2174.00000,72.85098
2176.00000,105.51681
2178.00000,113.19185
2180.00000,77.24206
2182.00000,51.55494
2184.00000,67.69594
2186.00000,76.07515
2188.00000,74.12232
2190.00000,64.44110
2192.00000,60.98283
2194.00000,87.86462
2196.00000,70.83931
2198.00000,64.55833
2200.00000,83.81408
2202.00000,57.37821
2204.00000,80.87200
2206.00000,140.11801
2208.00000,141.24939
2210.00000,81.95340
2212.00000,107.67446
2214.00000,99.35834
2216.00000,66.14244
2218.00000,85.06500
2220.00000,122.03289
2222.00000,106.55264
2224.00000,86.54797
2226.00000,103.31919
2228.00000,126.23765
2230.00000,121.62395
2232.00000,111.48560
2234.00000,112.80604
2236.00000,131.31798
2238.00000,162.85362
2240.00000,146.99767
2242.00000,130.01607
2244.00000,147.50677
2246.00000,154.62973
2248.00000,128.70181
2250.00000,109.81293
2252.00000,120.93995
2254.00000,145.16238
2256.00000,151.48232
2258.00000,110.63109
2260.00000,92.63657
2262.00000,134.82217
2264.00000,156.39711
2266.00000,101.59070
2268.00000,60.63158
2270.00000,67.82042
2272.00000,65.05029
2274.00000,47.86131
2276.00000,81.18553
2278.00000,116.05923
2280.00000,88.14484
2282.00000,61.15024
2284.00000,122.71620
2286.00000,130.16457
2288.00000,78.46918
2290.00000,115.85931
2292.00000,134.04816
2294.00000,111.92104
2296.00000,79.96105
2298.00000,72.56860
2300.00000,98.32726
2302.00000,88.63814
2304.00000,85.30543
2306.00000,115.43570
2308.00000,118.20893
2310.00000,91.96809
2312.00000,96.01350
2314.00000,101.61761
2316.00000,69.75140
2318.00000,88.68143
2320.00000,101.97146
2322.00000,87.58431
2324.00000,81.92851
2326.00000,101.83345
2328.00000,89.30972
2330.00000,71.95054
2332.00000,82.58788
2334.00000,94.60530
2336.00000,69.33794
2338.00000,89.53667
2340.00000,98.68770
2342.00000,71.08970
2344.00000,137.09869
2346.00000,119.66504
2348.00000,85.60799
2350.00000,117.19300
2352.00000,128.15248
2354.00000,72.92739
2356.00000,55.71060
2358.00000,77.10020
2360.00000,67.58063
2362.00000,60.73882
2364.00000,70.75675
2366.00000,70.18790
2368.00000,69.83693
2370.00000,110.20918
2372.00000,117.89865
2374.00000,110.90134
2376.00000,93.95943
2378.00000,66.39799
2380.00000,95.85604
2382.00000,83.58831
2384.00000,79.04858
2386.00000,118.21333
2388.00000,84.73077
2390.00000,75.96226
2392.00000,117.33855
2394.00000,139.87003
2396.00000,99.71313
2398.00000,86.64390
2400.00000,139.33115
2402.00000,153.46191
2404.00000,87.70731
2406.00000,96.17461
2408.00000,114.15878
2410.00000,109.13931
2412.00000,119.69363
2414.00000,148.81119
2416.00000,87.82350
2418.00000,89.74326
2420.00000,119.54099
2422.00000,74.33368
2424.00000,138.67325
2426.00000,150.04977
2428.00000,94.12901
2430.00000,72.26771
2432.00000,99.89333
2434.00000,134.05542
2436.00000,116.85522
2438.00000,90.01486
2440.00000,111.40945
2442.00000,89.45435
2444.00000,90.03615
2446.00000,126.22157
2448.00000,141.03223
2450.00000,118.50806
2452.00000,117.56884
2454.00000,130.63184
2456.00000,138.57733
2458.00000,158.31998
2460.00000,192.00525
2462.00000,167.88879
2464.00000,122.34026
2466.00000,127.04565
2468.00000,128.18956
2470.00000,110.53311
2472.00000,128.07007
2474.00000,144.39220
2476.00000,81.81477
2478.00000,135.85602
2480.00000,151.95792
2482.00000,115.28929
2484.00000,150.92392
2486.00000,120.79227
2488.00000,80.47955
2490.00000,110.88120
2492.00000,159.66270
2494.00000,111.45741
2496.00000,107.10279
2498.00000,128.87164
2500.00000,117.53293
2502.00000,92.99613
2504.00000,90.46936
2506.00000,92.13835
2508.00000,79.21183
2510.00000,75.39467
2512.00000,110.18341
2514.00000,84.51965
2516.00000,105.21278
2518.00000,152.72119
2520.00000,78.58282
2522.00000,139.86743
2524.00000,174.37822
2526.00000,123.18995
2528.00000,126.42097
2530.00000,168.42085
2532.00000,105.48582
2534.00000,65.73843
2536.00000,135.48462
2538.00000,139.23021
2540.00000,88.15420
2542.00000,105.88225
2544.00000,152.49213
2546.00000,127.28022
2548.00000,169.64528
2550.00000,200.84294
2552.00000,192.12408
2554.00000,187.82159
2556.00000,182.60001
2558.00000,136.41597
2560.00000,146.50574
2562.00000,180.88943
2564.00000,132.27509
2566.00000,196.04092
2568.00000,166.69362
2570.00000,78.38272
2572.00000,108.35834
2574.00000,121.14404
2576.00000,84.06669
2578.00000,105.48171
2580.00000,172.79646
2582.00000,135.42505
2584.00000,96.44273
2586.00000,81.08787
2588.00000,61.96293
2590.00000,51.51933
2592.00000,97.48021
2594.00000,75.05108
2596.00000,54.39984
2598.00000,99.06123
2600.00000,83.32872
2602.00000,74.27964
2604.00000,70.37254
2606.00000,66.74434
2608.00000,76.04628
2610.00000,45.56314
2612.00000,21.62481
2614.00000,47.11054
2616.00000,83.78522
2618.00000,62.37761
2620.00000,78.37068
2622.00000,77.52001
2624.00000,48.53525
2626.00000,76.70516
2628.00000,64.77338
2630.00000,85.37509
2632.00000,123.12873
2634.00000,98.24466
2636.00000,77.17310
2638.00000,91.02489
2640.00000,114.18984
2642.00000,120.04768
2644.00000,109.54398
2646.00000,75.96062
2648.00000,105.63679
2650.00000,170.33026
2652.00000,150.93488
2654.00000,83.80061
2656.00000,84.31394
2658.00000,111.24261
2660.00000,106.50674
2662.00000,131.11378
2664.00000,98.91167
2666.00000,81.37317
2668.00000,125.64347
2670.00000,156.82858
2672.00000,150.98959
2674.00000,128.81602
2676.00000,117.62926
2678.00000,122.49713
2680.00000,128.31319
2682.00000,147.01640
2684.00000,115.90147
2686.00000,83.60756
2688.00000,156.14191
2690.00000,99.62860
2692.00000,77.09074
2694.00000,129.90013
2696.00000,121.55062
2698.00000,128.74945
2700.00000,150.24821
2702.00000,139.30560
2704.00000,116.13296
2706.00000,162.47736
2708.00000,211.40593
2710.00000,214.93861
2712.00000,189.44507
2714.00000,176.65607
2716.00000,178.27342
2718.00000,172.46851
2720.00000,156.07227
2722.00000,160.31079
2724.00000,200.63234
2726.00000,165.09128
2728.00000,144.24748
2730.00000,166.64928
2732.00000,138.43925
2734.00000,194.39737
2736.00000,224.67929
2738.00000,177.13823
2740.00000,143.65427
2742.00000,176.70537
2744.00000,200.01541
2746.00000,184.87308
2748.00000,173.53603
2750.00000,180.68655
2752.00000,102.58047
2754.00000,98.62094
2756.00000,154.89687
2758.00000,101.07909
2760.00000,63.15820
2762.00000,144.04285
2764.00000,167.25652
2766.00000,84.53662
2768.00000,155.75609
2770.00000,112.88895
2772.00000,70.23711
2774.00000,160.24524
2776.00000,220.17555
2778.00000,118.24505
2780.00000,175.21864
2782.00000,220.72865
2784.00000,62.61967
2786.00000,165.15883
2788.00000,150.93526
2790.00000,87.76286
2792.00000,148.83392
2794.00000,182.10597
2796.00000,176.50163
2798.00000,160.46988
2800.00000,200.51535
2802.00000,265.12430
2804.00000,179.31883
2806.00000,231.76086
2808.00000,324.03784
2810.00000,270.31409
2812.00000,244.71555
2814.00000,318.07721
2816.00000,342.53580
2818.00000,310.36395
2820.00000,351.67236
2822.00000,375.29453
2824.00000,363.19843
2826.00000,379.57034
2828.00000,437.84708
2830.00000,462.17755
2832.00000,534.79309
2834.00000,565.75726
2836.00000,587.11609
2838.00000,731.29150
2840.00000,740.05457
2842.00000,796.39160
2844.00000,935.02502
2846.00000,1011.63965
2848.00000,1105.60791
2850.00000,1274.01733
2852.00000,1360.00867
2854.00000,1372.55920
2856.00000,1528.39746
2858.00000,1564.02686
2860.00000,1586.64270
2862.00000,1699.57007
2864.00000,1784.13391
2866.00000,1750.80042
2868.00000,1758.09937
2870.00000,1799.62048
2872.00000,1784.95642
2874.00000,1759.08398
2876.00000,1748.36414
2878.00000,1621.69055
2880.00000,1373.70935
2882.00000,1160.23193
2884.00000,992.97314
2886.00000,916.87170
2888.00000,825.14172
2890.00000,728.58533
2892.00000,898.89069
2894.00000,951.15875
2896.00000,949.01361
2898.00000,1041.66162
2900.00000,1080.05420
2902.00000,1084.08069
2904.00000,1188.79663
2906.00000,1241.62598
2908.00000,1166.52515
2910.00000,1387.81311
2912.00000,1380.57520
2914.00000,1314.16089
2916.00000,1442.34009
2918.00000,1379.51953
2920.00000,1310.00610
2922.00000,1382.03259
2924.00000,1416.74316
2926.00000,1275.40674
2928.00000,1350.64136
2930.00000,1385.53772
2932.00000,1322.56799
2934.00000,1324.67297
2936.00000,1332.14355
2938.00000,1204.24805
2940.00000,1088.85083
2942.00000,1045.44983
2944.00000,929.43915
2946.00000,823.89795
2948.00000,732.48572
2950.00000,668.67944
2952.00000,645.53357
2954.00000,599.60736
2956.00000,531.54846
2958.00000,548.67615
2960.00000,579.07092
2962.00000,445.96075
2964.00000,485.99744
2966.00000,457.45447
2968.00000,355.60382
2970.00000,417.49872
2972.00000,375.93375
2974.00000,373.19635
2976.00000,346.56580
2978.00000,245.24385
2980.00000,280.79761
2982.00000,240.71346
2984.00000,195.83792
2986.00000,207.66605
2988.00000,170.99881
2990.00000,123.63907
2992.00000,104.19211
2994.00000,49.23925
2996.00000,0.02189
2998.00000,145.29309
3000.00000,107.60487
3002.00000,33.05724
3004.00000,116.91424
3006.00000,145.80437
3008.00000,24.45257
3010.00000,58.67422
3012.00000,174.27565
3014.00000,125.21742
3016.00000,185.59196
3018.00000,215.63130
3020.00000,271.38046
3022.00000,374.05865
3024.00000,360.83307
3026.00000,547.62152
3028.00000,617.41986
3030.00000,591.58099
3032.00000,829.12994
3034.00000,939.23181
3036.00000,946.89313
3038.00000,1101.64172
3040.00000,1289.87354
3042.00000,1112.17004
3044.00000,1302.64050
3046.00000,1515.27429
3048.00000,1476.34229
3050.00000,1663.59692
3052.00000,1990.30225
3054.00000,2020.17554
3056.00000,1964.20654
3058.00000,2144.96265
3060.00000,2085.13770
3062.00000,1934.82715
3064.00000,1869.81628
3066.00000,1801.42334
3068.00000,1555.08862
3070.00000,1302.26953
3072.00000,1151.70007
3074.00000,1032.62085
3076.00000,883.41180
3078.00000,843.59924
3080.00000,775.40918
3082.00000,631.72040
3084.00000,559.66174
3086.00000,622.31488
3088.00000,401.77179
3090.00000,376.11652
3092.00000,537.56073
3094.00000,326.08337
3096.00000,317.60895
3098.00000,357.31610
3100.00000,272.97791
3102.00000,189.20854
3104.00000,243.76505
3106.00000,315.61920
3108.00000,182.02203
3110.00000,-2.49969
3112.00000,108.58562
3114.00000,118.23039
3116.00000,50.66794
3118.00000,22.18026
3120.00000,33.10389
3122.00000,77.26469
3124.00000,40.37814
3126.00000,-5.43575
3128.00000,22.21745
3130.00000,46.42797
3132.00000,72.71615
3134.00000,67.31172
3136.00000,26.36719
3138.00000,0.29591
3140.00000,26.98608
3142.00000,123.92255
3144.00000,122.09138
3146.00000,34.75813
3148.00000,166.51582
3150.00000,124.76669
3152.00000,70.24595
3154.00000,193.93642
3156.00000,291.61771
3158.00000,251.68108
3160.00000,119.19321
3162.00000,139.27199
3164.00000,282.84589
3166.00000,68.90636
3168.00000,57.88395
3170.00000,209.51561
3172.00000,195.93542
3174.00000,112.80804
3176.00000,181.11629
3178.00000,96.49381
3180.00000,27.56588
3182.00000,279.85953
3184.00000,219.53185
3186.00000,111.33370
3188.00000,128.44028
3190.00000,107.96715
3192.00000,-10.19285
3194.00000,176.67137
3196.00000,237.83904
3198.00000,105.20388
3200.00000,235.99222
