300.00000,479.88010
302.00000,431.60574
304.00000,369.42340
306.00000,332.65912
308.00000,312.89566
310.00000,310.24399
312.00000,346.10037
314.00000,381.68350
316.00000,408.20602
318.00000,429.54950
320.00000,444.23962
322.00000,447.23785
324.00000,439.80597
326.00000,451.91049
328.00000,485.40234
330.00000,500.37476
332.00000,487.16281
334.00000,461.13870
336.00000,472.06052
338.00000,567.89478
340.00000,739.73560
342.00000,914.20685
344.00000,997.30823
346.00000,971.18896
348.00000,897.93787
350.00000,807.04987
352.00000,720.00189
354.00000,653.43890
356.00000,598.27356
358.00000,530.15240
360.00000,498.32236
362.00000,481.95630
364.00000,441.29529
366.00000,387.58554
368.00000,367.61423
370.00000,388.53860
372.00000,404.57227
374.00000,378.19455
376.00000,345.63873
378.00000,379.90714
380.00000,436.63980
382.00000,459.92841
384.00000,454.12708
386.00000,429.70767
388.00000,434.67499
390.00000,444.86679
392.00000,416.77792
394.00000,372.96118
396.00000,318.03912
398.00000,291.92679
400.00000,301.62726
402.00000,309.42770
404.00000,310.55655
406.00000,308.25763
408.00000,333.22028
410.00000,406.98923
412.00000,507.22153
414.00000,612.34192
416.00000,694.55981
418.00000,784.39020
420.00000,933.23474
422.00000,1100.41138
424.00000,1281.29517
426.00000,1473.29260
428.00000,1640.38953
430.00000,1739.20337
432.00000,1815.82996
434.00000,1920.56238
436.00000,2041.73035
438.00000,2140.41357
440.00000,2233.87231
442.00000,2305.86108
444.00000,2309.51465
446.00000,2264.02100
448.00000,2251.24805
450.00000,2195.28174
452.00000,2082.02856
454.00000,1937.51050
456.00000,1790.38049
458.00000,1666.41260
460.00000,1494.49304
462.00000,1294.49805
464.00000,1137.45850
466.00000,1034.11279
468.00000,953.22607
470.00000,853.25964
472.00000,739.30554
474.00000,638.68005
476.00000,531.70673
478.00000,419.61639
480.00000,328.19821
482.00000,273.37375
484.00000,249.39491
486.00000,262.37653
488.00000,247.58737
490.00000,213.15613
492.00000,228.19444
494.00000,263.76895
496.00000,231.35326
498.00000,185.74588
500.00000,202.53339
502.00000,238.00232
504.00000,240.34111
506.00000,233.89673
508.00000,250.90610
510.00000,274.97644
512.00000,270.67923
514.00000,317.21249
516.00000,372.50067
518.00000,408.32111
520.00000,505.69482
522.00000,624.26050
524.00000,708.98444
526.00000,752.70245
528.00000,755.47137
530.00000,670.23993
532.00000,521.23218
534.00000,398.88992
536.00000,327.24036
538.00000,247.02242
540.00000,198.45876
542.00000,167.31770
544.00000,124.09077
546.00000,79.15034
548.00000,75.49457
550.00000,92.82478
552.00000,111.25772
554.00000,126.82399
556.00000,147.72987
558.00000,191.03064
560.00000,219.12123
562.00000,248.73029
564.00000,326.52930
566.00000,427.30173
568.00000,510.06268
570.00000,556.31934
572.00000,569.18817
574.00000,560.34937
576.00000,535.31140
578.00000,465.70926
580.00000,398.85632
582.00000,412.27539
584.00000,480.74466
586.00000,504.39536
588.00000,550.27881
590.00000,659.91925
592.00000,760.51837
594.00000,888.97870
596.00000,1050.70349
598.00000,1194.73193
600.00000,1288.27478
602.00000,1377.02161
604.00000,1483.77979
606.00000,1584.38696
608.00000,1699.68311
610.00000,1863.05261
612.00000,1957.72644
614.00000,1962.66028
616.00000,1977.77893
618.00000,2006.81543
620.00000,1870.90027
622.00000,1679.72815
624.00000,1449.51294
626.00000,1187.23889
628.00000,962.94159
630.00000,770.76459
632.00000,630.06836
634.00000,562.33356
636.00000,542.01611
638.00000,491.44101
640.00000,381.07526
642.00000,305.16885
644.00000,320.92618
646.00000,349.13309
648.00000,285.84619
650.00000,247.02711
652.00000,229.86014
654.00000,179.47331
656.00000,171.38235
658.00000,180.57254
660.00000,222.04259
662.00000,264.46793
664.00000,236.96318
666.00000,187.15335
668.00000,194.22589
670.00000,309.05710
672.00000,456.34106
674.00000,496.93475
676.00000,589.92487
678.00000,726.57672
680.00000,792.75830
682.00000,731.25104
684.00000,577.52844
686.00000,381.19336
688.00000,236.56233
690.00000,175.19882
692.00000,116.64458
694.00000,87.85537
696.00000,123.19833
698.00000,152.78946
700.00000,104.09763
702.00000,92.36704
704.00000,118.95800
706.00000,148.94427
708.00000,186.91264
710.00000,259.60300
712.00000,317.45679
714.00000,364.25677
716.00000,414.36243
718.00000,448.91400
720.00000,452.80826
722.00000,515.44623
724.00000,572.49237
726.00000,565.69482
728.00000,575.66132
730.00000,518.19940
732.00000,431.53958
734.00000,377.56165
736.00000,365.69754
738.00000,394.19992
740.00000,428.80621
742.00000,501.50687
744.00000,600.11017
746.00000,598.75806
748.00000,458.68683
750.00000,307.69846
752.00000,240.34508
754.00000,237.46051
756.00000,245.48401
758.00000,208.93713
760.00000,173.56244
762.00000,167.12874
764.00000,134.39932
766.00000,116.58994
768.00000,138.20468
770.00000,154.47694
772.00000,139.43314
774.00000,173.90111
776.00000,214.82993
778.00000,228.35410
780.00000,212.41774
782.00000,190.32707
784.00000,233.82706
786.00000,244.37422
788.00000,210.58418
790.00000,212.13672
792.00000,210.47263
794.00000,170.74301
796.00000,149.80725
798.00000,184.42732
800.00000,220.17798
802.00000,227.19916
804.00000,222.66762
806.00000,252.13046
808.00000,335.38797
810.00000,413.50519
812.00000,392.46872
814.00000,372.74463
816.00000,399.50800
818.00000,340.69946
820.00000,221.60133
822.00000,172.98474
824.00000,191.11511
826.00000,193.67461
828.00000,204.61447
830.00000,192.06479
832.00000,184.51573
834.00000,205.88776
836.00000,219.54408
838.00000,209.51453
840.00000,221.74747
842.00000,230.78308
844.00000,201.82521
846.00000,197.46460
848.00000,174.30623
850.00000,202.26918
852.00000,240.47353
854.00000,149.46553
856.00000,111.31667
858.00000,103.21654
860.00000,121.08307
862.00000,168.67180
864.00000,141.73320
866.00000,129.49962
868.00000,129.85655
870.00000,131.92789
872.00000,159.88197
874.00000,132.40974
876.00000,105.92389
878.00000,91.38599
880.00000,66.07629
882.00000,66.35419
884.00000,38.06991
886.00000,57.61473
888.00000,125.35926
890.00000,130.96835
892.00000,136.72121
894.00000,127.18105
896.00000,99.31168
898.00000,105.39220
900.00000,168.70874
902.00000,146.01083
904.00000,108.67548
906.00000,131.46135
908.00000,137.40924
910.00000,80.92361
912.00000,82.59965
914.00000,99.77420
916.00000,61.12967
918.00000,72.06931
920.00000,60.40101
922.00000,22.65117
924.00000,33.89920
926.00000,101.01958
928.00000,73.95051
930.00000,51.64510
932.00000,48.88901
934.00000,32.94777
936.00000,65.48302
938.00000,67.52456
940.00000,50.79992
942.00000,47.05375
944.00000,74.85724
946.00000,182.99368
948.00000,192.24170
950.00000,166.65947
952.00000,241.40414
954.00000,329.46497
956.00000,443.95120
958.00000,521.82697
960.00000,569.76300
962.00000,656.59845
964.00000,717.62909
966.00000,736.15106
968.00000,749.67706
970.00000,757.51892
972.00000,698.75439
974.00000,610.96515
976.00000,521.00507
978.00000,476.16299
980.00000,475.93613
982.00000,398.29382
984.00000,406.12802
986.00000,490.69028
988.00000,548.39386
990.00000,619.38861
992.00000,760.34662
994.00000,986.45367
996.00000,1341.86609
998.00000,1792.65723
1000.00000,2077.15942
1002.00000,2115.15771
1004.00000,1865.44580
1006.00000,1394.47205
1008.00000,937.52850
1010.00000,668.78271
1012.00000,533.13770
1014.00000,452.70526
1016.00000,424.70148
1018.00000,435.65848
1020.00000,430.09531
1022.00000,481.43652
1024.00000,606.64087
1026.00000,685.39923
1028.00000,789.85498
1030.00000,853.61475
1032.00000,860.48999
1034.00000,860.84210
1036.00000,813.32166
1038.00000,773.69012
1040.00000,740.39874
1042.00000,678.71893
1044.00000,611.61951
1046.00000,612.13428
1048.00000,627.08044
1050.00000,656.90515
1052.00000,751.61908
1054.00000,860.02045
1056.00000,960.58514
1058.00000,1095.41943
1060.00000,1243.68921
1062.00000,1302.44360
1064.00000,1282.83020
1066.00000,1142.59082
1068.00000,1002.38916
1070.00000,963.10217
1072.00000,841.13184
1074.00000,797.11371
1076.00000,810.72974
1078.00000,797.63995
1080.00000,848.31958
1082.00000,1081.10217
1084.00000,1285.40491
1086.00000,1332.11914
1088.00000,1221.49585
1090.00000,920.99652
1092.00000,726.28741
1094.00000,636.54449
1096.00000,573.37860
1098.00000,591.66980
1100.00000,601.18951
1102.00000,653.87036
1104.00000,765.75330
1106.00000,865.68970
1108.00000,902.25690
1110.00000,881.42261
1112.00000,804.28510
1114.00000,677.68036
1116.00000,548.50037
1118.00000,489.15848
1120.00000,428.34454
1122.00000,357.16891
1124.00000,313.29837
1126.00000,267.15204
1128.00000,287.69443
1130.00000,316.24384
1132.00000,296.86719
1134.00000,289.41522
1136.00000,339.19427
1138.00000,321.25967
1140.00000,299.47076
1142.00000,370.05716
1144.00000,395.37106
1146.00000,469.43201
1148.00000,594.44934
1150.00000,732.93280
1152.00000,907.58783
1154.00000,1142.23389
1156.00000,1396.16187
1158.00000,1597.63708
1160.00000,1693.81604
1162.00000,1674.01428
1164.00000,1536.82117
1166.00000,1312.05481
1168.00000,1093.78833
1170.00000,975.56201
1172.00000,916.14673
1174.00000,862.01733
1176.00000,847.86206
1178.00000,898.95978
1180.00000,937.10950
1182.00000,954.05261
1184.00000,955.19489
1186.00000,918.10376
1188.00000,841.39197
1190.00000,820.92871
1192.00000,856.36090
1194.00000,877.59521
1196.00000,860.09650
1198.00000,869.84460
1200.00000,904.71362
1202.00000,911.73584
1204.00000,877.47516
1206.00000,811.14539
1208.00000,660.48932
1210.00000,515.45135
1212.00000,477.29547
1214.00000,473.97742
1216.00000,376.22931
1218.00000,537.89435
1220.00000,791.40735
1222.00000,1042.19714
1224.00000,1447.81323
1226.00000,1841.83899
1228.00000,2214.50562
1230.00000,2382.03271
1232.00000,2188.76904
1234.00000,1801.85669
1236.00000,1433.93726
1238.00000,1209.67407
1240.00000,1179.74780
1242.00000,1253.96057
1244.00000,1167.92896
1246.00000,987.89063
1248.00000,808.99170
1250.00000,657.06775
1252.00000,557.16254
1254.00000,553.54767
1256.00000,572.33295
1258.00000,662.10474
1260.00000,819.12109
1262.00000,700.97534
1264.00000,675.95087
1266.00000,729.96838
1268.00000,781.12982
1270.00000,1074.83240
1272.00000,1330.23157
1274.00000,1689.34619
1276.00000,2166.87158
1278.00000,2536.05347
1280.00000,2801.09424
1282.00000,2822.15381
1284.00000,2616.53760
1286.00000,2252.67773
1288.00000,1758.68933
1290.00000,1385.85474
1292.00000,1115.27429
1294.00000,895.73389
1296.00000,752.80731
1298.00000,649.84204
1300.00000,545.10144
1302.00000,486.50903
1304.00000,482.25882
1306.00000,457.68436
1308.00000,479.43124
1310.00000,570.10651
1312.00000,675.81189
1314.00000,729.12488
1316.00000,730.96021
1318.00000,739.41797
1320.00000,756.69727
1322.00000,781.00751
1324.00000,827.22351
1326.00000,825.68231
1328.00000,854.46588
1330.00000,891.02307
1332.00000,845.90045
1334.00000,796.09277
1336.00000,795.28619
1338.00000,781.57666
1340.00000,808.63300
1342.00000,992.31244
1344.00000,1064.75085
1346.00000,1327.37012
1348.00000,1788.60120
1350.00000,2241.26050
1352.00000,2886.34302
1354.00000,3455.31274
1356.00000,3884.04736
1358.00000,4124.95850
1360.00000,3963.82031
1362.00000,3449.25732
1364.00000,2938.35791
1366.00000,2544.48828
1368.00000,2266.29321
1370.00000,2308.07690
1372.00000,2356.76831
1374.00000,2413.80347
1376.00000,2419.39819
1378.00000,2131.18042
1380.00000,1874.43896
1382.00000,1772.46765
1384.00000,1771.09961
1386.00000,1856.47046
1388.00000,2079.07300
1390.00000,2155.98804
1392.00000,2074.42920
1394.00000,1886.22888
1396.00000,1531.96826
1398.00000,1114.72900
1400.00000,775.81262
1402.00000,521.88348
1404.00000,314.84338
1406.00000,209.11807
1408.00000,160.79407
1410.00000,169.26994
1412.00000,192.12553
1414.00000,137.77942
1416.00000,47.74972
1418.00000,52.44688
1420.00000,70.41324
1422.00000,0.84269
1424.00000,-7.95216
1426.00000,40.47787
1428.00000,44.52992
1430.00000,44.90097
1432.00000,163.19531
1434.00000,260.48779
1436.00000,324.08591
1438.00000,484.33942
1440.00000,729.42322
1442.00000,850.89819
1444.00000,1097.71582
1446.00000,1336.00122
1448.00000,1451.22620
1450.00000,1562.01660
1452.00000,1608.09741
1454.00000,1651.79163
1456.00000,1725.16296
1458.00000,1782.36560
1460.00000,1779.27344
1462.00000,1742.15149
1464.00000,1632.26208
1466.00000,1491.32422
1468.00000,1447.40454
1470.00000,1500.99109
1472.00000,1565.17834
1474.00000,1719.31738
1476.00000,2041.06348
1478.00000,2388.27173
1480.00000,2650.38623
1482.00000,2884.94067
1484.00000,3001.36060
1486.00000,2826.07080
1488.00000,2536.10425
1490.00000,2270.58521
1492.00000,2000.89453
1494.00000,1698.10901
1496.00000,1434.93066
1498.00000,1138.44592
1500.00000,895.19617
1502.00000,734.28613
1504.00000,572.64172
1506.00000,429.17371
1508.00000,319.58441
1510.00000,223.93657
1512.00000,160.91014
1514.00000,171.61130
1516.00000,110.96488
1518.00000,29.12476
1520.00000,33.16562
1522.00000,90.56486
1524.00000,68.26180
1526.00000,160.07616
1528.00000,206.56201
1530.00000,106.55632
1532.00000,183.61005
1534.00000,359.47443
1536.00000,385.84613
1538.00000,376.74158
1540.00000,564.87994
1542.00000,690.95422
1544.00000,865.54388
1546.00000,1163.31018
1548.00000,1504.84448
1550.00000,1744.58325
1552.00000,1760.89502
1554.00000,1870.73657
1556.00000,1946.50867
1558.00000,1699.63928
1560.00000,1640.65430
1562.00000,1706.40918
1564.00000,1803.94946
1566.00000,2024.25098
1568.00000,2422.20190
1570.00000,2731.39990
1572.00000,3124.69165
1574.00000,3724.64014
1576.00000,4310.45264
1578.00000,4582.93115
1580.00000,4626.17090
1582.00000,4426.35693
1584.00000,3979.37427
1586.00000,3445.31274
1588.00000,2905.32275
1590.00000,2519.57544
1592.00000,2248.88086
1594.00000,2003.30627
1596.00000,1955.44263
1598.00000,1990.60474
1600.00000,1869.64819
1602.00000,1798.55762
1604.00000,2055.64209
1606.00000,1682.62817
1608.00000,1391.48975
1610.00000,1323.05298
1612.00000,994.21863
1614.00000,886.24078
1616.00000,783.86932
1618.00000,672.64807
1620.00000,647.98187
1622.00000,614.64160
1624.00000,505.24933
1626.00000,406.22760
1628.00000,407.00955
1630.00000,429.82562
1632.00000,310.75977
1634.00000,347.75162
1636.00000,320.71637
1638.00000,176.99646
1640.00000,270.36136
1642.00000,265.81268
1644.00000,156.98083
1646.00000,111.62739
1648.00000,154.56145
1650.00000,142.29677
1652.00000,196.95111
1654.00000,206.81496
1656.00000,161.19359
1658.00000,224.75880
1660.00000,188.21556
1662.00000,137.04782
1664.00000,154.72707
1666.00000,182.79109
1668.00000,156.40591
1670.00000,140.57962
1672.00000,201.40309
1674.00000,240.62340
1676.00000,142.95099
1678.00000,141.81175
1680.00000,223.73659
1682.00000,215.29468
1684.00000,143.22240
1686.00000,269.30847
1688.00000,284.65121
1690.00000,210.29530
1692.00000,247.25542
1694.00000,355.64267
1696.00000,245.84549
1698.00000,183.98874
1700.00000,248.88792
1702.00000,275.23862
1704.00000,241.07875
1706.00000,184.36627
1708.00000,213.43730
1710.00000,276.52774
1712.00000,240.68962
1714.00000,248.08948
1716.00000,202.01300
1718.00000,148.26430
1720.00000,204.96626
1722.00000,270.45575
1724.00000,177.09982
1726.00000,197.08968
1728.00000,303.49893
1730.00000,229.57259
1732.00000,354.00336
1734.00000,247.15411
1736.00000,233.40399
1738.00000,529.17487
1740.00000,366.10715
1742.00000,394.10840
1744.00000,354.48013
1746.00000,221.72188
1748.00000,378.69443
1750.00000,232.18936
1752.00000,260.30991
1754.00000,326.75494
1756.00000,192.39278
1758.00000,308.78290
1760.00000,210.77695
1762.00000,243.35663
1764.00000,370.64236
1766.00000,201.80511
1768.00000,370.67709
1770.00000,329.13535
1772.00000,278.67017
1774.00000,451.46317
1776.00000,285.03101
1778.00000,447.17252
1780.00000,394.08145
1782.00000,272.49915
1784.00000,690.78851
1786.00000,531.97949
1788.00000,464.63092
1790.00000,528.07965
1792.00000,412.79599
1794.00000,449.88354
1796.00000,488.73181
1798.00000,429.72015
1800.00000,430.16885
1802.00000,508.37924
1804.00000,278.46527
1806.00000,476.05685
1808.00000,558.31293
1810.00000,165.83334
1812.00000,293.91650
1814.00000,448.84152
1816.00000,348.39975
1818.00000,315.42407
1820.00000,500.64001
1822.00000,296.99728
1824.00000,381.46341
1826.00000,432.43152
1828.00000,211.30962
1830.00000,431.23215
1832.00000,484.09579
1834.00000,277.59033
1836.00000,285.75891
1838.00000,570.75897
1840.00000,327.82724
1842.00000,234.64275
1844.00000,422.88501
1846.00000,472.29202
1848.00000,316.59805
1850.00000,383.10629
1852.00000,382.94705
1854.00000,296.31290
1856.00000,373.14981
1858.00000,351.29987
1860.00000,309.49652
1862.00000,350.38815
1864.00000,299.57968
1866.00000,56.89357
1868.00000,319.59003
1870.00000,359.30725
1872.00000,209.46808
1874.00000,439.99557
1876.00000,393.91745
1878.00000,253.69647
1880.00000,306.11685
1882.00000,431.30185
1884.00000,361.82162
1886.00000,394.96909
1888.00000,289.48645
1890.00000,208.95677
1892.00000,423.80493
1894.00000,455.06381
1896.00000,393.69199
1898.00000,361.93100
1900.00000,335.99371
1902.00000,305.42557
1904.00000,418.59601
1906.00000,412.80942
1908.00000,400.26297
1910.00000,538.63940
1912.00000,425.11133
1914.00000,422.65939
1916.00000,350.65726
1918.00000,293.45239
1920.00000,619.96271
1922.00000,448.67526
1924.00000,473.98502
1926.00000,607.71808
1928.00000,382.00635
1930.00000,510.56445
1932.00000,487.52307
1934.00000,394.40149
1936.00000,428.54184
1938.00000,430.57693
1940.00000,528.52191
1942.00000,463.05103
1944.00000,417.74609
1946.00000,591.52716
1948.00000,547.68524
1950.00000,517.37799
1952.00000,423.28528
1954.00000,451.42432
1956.00000,760.23035
1958.00000,325.87262
1960.00000,424.66568
1962.00000,654.48657
1964.00000,221.33534
1966.00000,476.12198
1968.00000,503.59888
1970.00000,457.84396
1972.00000,561.10895
1974.00000,424.09460
1976.00000,406.86542
1978.00000,476.27597
1980.00000,414.12442
1982.00000,282.20578
1984.00000,396.97592
1986.00000,423.40219
1988.00000,377.48724
1990.00000,342.66788
1992.00000,259.28424
1994.00000,238.08180
1996.00000,272.02316
1998.00000,240.30151
2000.00000,30.76126
2002.00000,46.34202
2004.00000,56.65524
2006.00000,44.07312
2008.00000,50.79927
2010.00000,33.10023
2012.00000,19.90329
2014.00000,36.60323
2016.00000,50.94343
2018.00000,32.08692
2020.00000,60.74789
2022.00000,98.41286
2024.00000,73.58122
2026.00000,43.02251
2028.00000,45.84447
2030.00000,75.71570
2032.00000,88.17538
2034.00000,62.97437
2036.00000,70.27847
2038.00000,67.30912
2040.00000,53.88992
2042.00000,79.42569
2044.00000,123.10560
2046.00000,96.31580
2048.00000,73.04644
2050.00000,114.64088
2052.00000,140.18887
2054.00000,129.39714
2056.00000,131.48914
2058.00000,139.10001
2060.00000,112.21711
2062.00000,97.13808
2064.00000,110.11233
2066.00000,127.27041
2068.00000,133.18037
2070.00000,144.46837
2072.00000,150.98964
2074.00000,150.51230
2076.00000,143.59323
2078.00000,119.10796
2080.00000,72.75301
2082.00000,112.68891
2084.00000,138.17322
2086.00000,65.60429
2088.00000,92.97643
2090.00000,130.24727
2092.00000,122.08210
2094.00000,113.14426
2096.00000,129.51707
2098.00000,71.50935
2100.00000,58.59815
2102.00000,105.49606
2104.00000,113.71383
2106.00000,110.54958
2108.00000,96.79222
2110.00000,106.03573
2112.00000,112.96221
2114.00000,55.49275
2116.00000,99.79243
2118.00000,166.64249
2120.00000,159.80270
2122.00000,131.17926
2124.00000,155.17841
2126.00000,144.92001
2128.00000,128.49680
2130.00000,146.38080
2132.00000,118.30575
2134.00000,147.22197
2136.00000,177.17157
2138.00000,159.63602
2140.00000,150.73274
2142.00000,137.61504
2144.00000,134.53598
2146.00000,134.68419
2148.00000,120.61174
2150.00000,111.88696
2152.00000,131.25237
2154.00000,146.95314
2156.00000,157.24997
2158.00000,196.09235
2160.00000,180.86627
2162.00000,135.02655
2164.00000,140.68091
2166.00000,182.07832
2168.00000,118.24692
2170.00000,150.46599
2172.00000,216.60591
2174.00000,183.11722
2176.00000,164.18671
2178.00000,170.79327
2180.00000,156.58272
2182.00000,133.97861
2184.00000,147.48026
2186.00000,149.53658
2188.00000,184.73209
2190.00000,210.21361
2192.00000,192.13846
2194.00000,220.45409
2196.00000,194.28134
2198.00000,190.28738
2200.00000,222.25301
2202.00000,185.89374
2204.00000,235.27766
2206.00000,207.33759
2208.00000,146.40805
2210.00000,219.79102
2212.00000,253.44994
2214.00000,203.23120
2216.00000,187.22392
2218.00000,229.46159
2220.00000,191.23203
2222.00000,138.01746
2224.00000,121.32564
2226.00000,132.83371
2228.00000,121.52396
2230.00000,61.71484
2232.00000,137.76447
2234.00000,213.24429
2236.00000,141.43439
2238.00000,136.64406
2240.00000,163.23766
2242.00000,158.59796
2244.00000,133.61339
2246.00000,144.64220
2248.00000,195.00536
2250.00000,195.58224
2252.00000,151.93550
2254.00000,145.51210
2256.00000,175.01958
2258.00000,136.36668
2260.00000,118.66832
2262.00000,185.07481
2264.00000,214.63576
2266.00000,168.81081
2268.00000,169.69319
2270.00000,214.17477
2272.00000,211.71349
2274.00000,230.63228
2276.00000,235.74568
2278.00000,212.40800
2280.00000,193.85654
2282.00000,197.11877
2284.00000,168.18314
2286.00000,178.77005
2288.00000,208.80693
2290.00000,151.27588
2292.00000,97.83928
2294.00000,132.30370
2296.00000,168.72130
2298.00000,139.71165
2300.00000,151.58078
2302.00000,103.49627
2304.00000,53.64371
2306.00000,84.60275
2308.00000,136.10661
2310.00000,114.97854
2312.00000,125.05695
2314.00000,176.66180
2316.00000,174.72144
2318.00000,130.44113
2320.00000,102.03306
2322.00000,100.59558
2324.00000,126.81941
2326.00000,175.61633
2328.00000,142.19008
2330.00000,121.47897
2332.00000,130.91130
2334.00000,119.26494
2336.00000,201.64125
2338.00000,150.74625
2340.00000,104.45939
2342.00000,199.03645
2344.00000,146.80374
2346.00000,107.68382
2348.00000,155.38174
2350.00000,208.96214
2352.00000,190.36523
2354.00000,161.51848
2356.00000,161.72066
2358.00000,182.47809
2360.00000,186.91418
2362.00000,167.94054
2364.00000,234.32010
2366.00000,243.75166
2368.00000,165.37680
2370.00000,194.47061
2372.00000,178.89528
2374.00000,180.23439
2376.00000,246.91840
2378.00000,279.37366
2380.00000,196.33485
2382.00000,180.94290
2384.00000,221.90485
2386.00000,215.52646
2388.00000,204.44897
2390.00000,237.53513
2392.00000,252.16658
2394.00000,232.60968
2396.00000,238.12508
2398.00000,242.61133
2400.00000,179.76421
2402.00000,170.59232
2404.00000,257.54111
2406.00000,213.52400
2408.00000,210.85693
2410.00000,235.38701
2412.00000,203.51750
2414.00000,174.32866
2416.00000,238.05792
2418.00000,232.08202
2420.00000,129.74809
2422.00000,103.11498
2424.00000,212.36147
2426.00000,175.96942
2428.00000,132.90620
2430.00000,224.09618
2432.00000,226.62085
2434.00000,181.29921
2436.00000,215.52995
2438.00000,257.26376
2440.00000,185.62898
2442.00000,175.23918
2444.00000,144.73198
2446.00000,123.58198
2448.00000,188.69229
2450.00000,238.62659
2452.00000,148.34804
2454.00000,104.65056
2456.00000,145.01286
2458.00000,106.47945
2460.00000,157.75531
2462.00000,203.52112
2464.00000,205.32156
2466.00000,186.13976
2468.00000,93.13338
2470.00000,135.54509
2472.00000,216.16202
2474.00000,186.47672
2476.00000,137.57567
2478.00000,169.36783
2480.00000,166.57893
2482.00000,99.32034
2484.00000,67.23052
2486.00000,88.49664
2488.00000,139.44749
2490.00000,135.55769
2492.00000,93.36319
2494.00000,151.61581
2496.00000,210.38255
2498.00000,176.23737
2500.00000,117.37798
2502.00000,144.87946
2504.00000,166.80450
2506.00000,180.24579
2508.00000,144.84148
2510.00000,104.96921
2512.00000,201.64694
2514.00000,110.29395
2516.00000,102.18887
2518.00000,219.77818
2520.00000,98.99036
2522.00000,174.06340
2524.00000,237.75800
2526.00000,175.71584
2528.00000,179.01559
2530.00000,273.92596
2532.00000,227.18507
2534.00000,143.85716
2536.00000,179.59441
2538.00000,219.96609
2540.00000,210.60941
2542.00000,240.11406
2544.00000,278.48407
2546.00000,242.66756
2548.00000,256.86420
2550.00000,200.21724
2552.00000,202.02475
2554.00000,315.87363
2556.00000,264.34186
2558.00000,292.00824
2560.00000,313.01526
2562.00000,226.31398
2564.00000,194.28168
2566.00000,320.58292
2568.00000,241.91101
2570.00000,122.84318
2572.00000,256.77582
2574.00000,260.04044
2576.00000,163.76801
2578.00000,220.23044
2580.00000,319.76245
2582.00000,163.70435
2584.00000,264.17017
2586.00000,235.10716
2588.00000,76.46000
2590.00000,206.65860
2592.00000,339.95660
2594.00000,264.17935
2596.00000,183.23997
2598.00000,244.83786
2600.00000,258.56110
2602.00000,316.43716
2604.00000,210.71725
2606.00000,114.32723
2608.00000,307.00763
2610.00000,176.83653
2612.00000,143.37743
2614.00000,303.12817
2616.00000,292.56848
2618.00000,70.68038
2620.00000,107.04176
2622.00000,230.12286
2624.00000,142.40355
2626.00000,18.35841
2628.00000,204.22878
2630.00000,259.78989
2632.00000,131.97583
2634.00000,142.14705
2636.00000,160.09389
2638.00000,99.83067
2640.00000,102.96348
2642.00000,183.94392
2644.00000,119.40028
2646.00000,21.21316
2648.00000,151.50116
2650.00000,258.29007
2652.00000,63.79589
2654.00000,187.52519
2656.00000,300.35410
2658.00000,230.41911
2660.00000,178.47461
2662.00000,246.84470
2664.00000,205.79991
2666.00000,230.66527
2668.00000,305.30963
2670.00000,203.76797
2672.00000,273.77670
2674.00000,260.17120
2676.00000,153.99921
2678.00000,144.85437
2680.00000,122.29659
2682.00000,227.40047
2684.00000,276.97104
2686.00000,207.24136
2688.00000,256.69147
2690.00000,272.46490
2692.00000,218.88121
2694.00000,203.68340
2696.00000,272.21854
2698.00000,269.65683
2700.00000,210.27838
2702.00000,248.49055
2704.00000,279.02750
2706.00000,61.00538
2708.00000,215.78796
2710.00000,302.35016
2712.00000,108.56470
2714.00000,103.90082
2716.00000,242.67920
2718.00000,118.03082
2720.00000,24.36387
2722.00000,225.93596
2724.00000,183.39044
2726.00000,188.94493
2728.00000,164.91570
2730.00000,62.83523
2732.00000,111.94202
2734.00000,172.94687
2736.00000,155.49208
2738.00000,217.61546
2740.00000,368.18304
2742.00000,187.78607
2744.00000,-15.13341
2746.00000,107.08021
2748.00000,300.16345
2750.00000,81.03632
2752.00000,110.48449
2754.00000,230.37511
2756.00000,172.63925
2758.00000,93.19964
2760.00000,178.90842
2762.00000,141.04439
2764.00000,99.88410
2766.00000,195.24370
2768.00000,146.16179
2770.00000,175.97791
2772.00000,90.18221
2774.00000,23.65584
2776.00000,271.57721
2778.00000,117.82251
2780.00000,100.24110
2782.00000,194.24953
2784.00000,25.82367
2786.00000,20.84961
2788.00000,122.21246
2790.00000,168.95975
2792.00000,98.46749
2794.00000,17.30092
2796.00000,152.93544
2798.00000,133.69983
2800.00000,21.05262
2802.00000,111.97447
2804.00000,52.62437
2806.00000,108.57604
2808.00000,162.74051
2810.00000,111.17752
2812.00000,223.65059
2814.00000,160.74042
2816.00000,43.29276
2818.00000,157.44600
2820.00000,354.27896
2822.00000,73.58904
2824.00000,125.92733
2826.00000,266.36490
2828.00000,57.09387
2830.00000,270.63284
2832.00000,351.57620
2834.00000,304.62939
2836.00000,346.58417
2838.00000,381.46951
2840.00000,400.99677
2842.00000,469.14618
2844.00000,622.85602
2846.00000,802.54297
2848.00000,876.78119
2850.00000,853.48682
2852.00000,979.02350
2854.00000,1209.20337
2856.00000,1169.59888
2858.00000,1136.39783
2860.00000,1350.47449
2862.00000,1427.34180
2864.00000,1104.54468
2866.00000,1227.10999
2868.00000,1356.65393
2870.00000,1238.18274
2872.00000,1177.27747
2874.00000,1412.62268
2876.00000,1477.60181
2878.00000,1263.21472
2880.00000,1219.36536
2882.00000,1530.04932
2884.00000,1289.23804
2886.00000,1307.56311
2888.00000,1591.71973
2890.00000,1489.00085
2892.00000,1324.21033
2894.00000,1470.95984
2896.00000,1615.79712
2898.00000,1582.20959
2900.00000,1682.87292
2902.00000,1758.33118
2904.00000,1740.69421
2906.00000,1824.77417
2908.00000,2046.95093
2910.00000,1973.61743
2912.00000,1916.79993
2914.00000,1933.52429
2916.00000,1902.40637
2918.00000,1936.67725
2920.00000,2137.42456
2922.00000,2060.75122
2924.00000,1843.77466
2926.00000,1972.07434
2928.00000,1912.86096
2930.00000,1864.36951
2932.00000,1855.62354
2934.00000,1813.08264
2936.00000,1914.72974
2938.00000,1814.73657
2940.00000,1558.59583
2942.00000,1468.33252
2944.00000,1566.30225
2946.00000,1311.56189
2948.00000,1142.30017
2950.00000,1163.22693
2952.00000,1043.81140
2954.00000,896.56470
2956.00000,1002.53589
2958.00000,974.99530
2960.00000,729.12677
2962.00000,832.85242
2964.00000,923.04016
2966.00000,840.32898
2968.00000,798.15710
2970.00000,870.86249
2972.00000,642.98956
2974.00000,599.84589
2976.00000,738.78015
2978.00000,630.65649
2980.00000,290.50699
2982.00000,392.26117
2984.00000,496.65082
2986.00000,356.33771
2988.00000,413.05807
2990.00000,523.58240
2992.00000,345.15839
2994.00000,159.19058
2996.00000,332.09525
2998.00000,448.36493
3000.00000,130.13182
3002.00000,91.36842
3004.00000,494.58755
3006.00000,416.25073
3008.00000,42.68727
3010.00000,174.04843
3012.00000,422.24918
3014.00000,115.53941
3016.00000,174.84744
3018.00000,376.38953
3020.00000,403.98334
3022.00000,318.79938
3024.00000,345.86719
3026.00000,436.58722
3028.00000,421.28882
3030.00000,398.23392
3032.00000,574.23877
3034.00000,733.14801
3036.00000,754.05206
3038.00000,812.56293
3040.00000,969.09277
3042.00000,979.86371
3044.00000,1164.03809
3046.00000,1329.52356
3048.00000,1350.13416
3050.00000,1452.34705
3052.00000,1549.16772
3054.00000,1775.35291
3056.00000,1849.19812
3058.00000,1679.29944
3060.00000,1971.95654
3062.00000,1998.54175
3064.00000,1642.72705
3066.00000,1545.93005
3068.00000,1823.69104
3070.00000,1053.19226
3072.00000,777.98511
3074.00000,1262.32800
3076.00000,1016.80408
3078.00000,521.40985
3080.00000,751.92194
3082.00000,921.05811
3084.00000,475.64212
3086.00000,581.28119
3088.00000,575.32452
3090.00000,388.87448
3092.00000,447.39325
3094.00000,663.18909
3096.00000,177.09856
3098.00000,41.73217
3100.00000,367.66415
3102.00000,347.52567
3104.00000,74.28973
3106.00000,201.54535
3108.00000,241.62025
3110.00000,-13.19621
3112.00000,121.66228
3114.00000,334.11884
3116.00000,205.77728
3118.00000,63.92647
3120.00000,237.84302
3122.00000,72.13300
3124.00000,8.98534
3126.00000,59.44686
3128.00000,-5.41852
3130.00000,-19.52457
3132.00000,142.88492
3134.00000,296.21271
3136.00000,311.31409
3138.00000,241.76993
3140.00000,115.19092
3142.00000,54.28552
3144.00000,91.98717
3146.00000,115.20026
3148.00000,19.01900
3150.00000,18.96738
3152.00000,219.18930
3154.00000,288.47137
3156.00000,10.29220
3158.00000,186.55620
3160.00000,208.00270
3162.00000,-55.92139
3164.00000,-6.13809
3166.00000,348.06760
3168.00000,123.96286
3170.00000,153.84212
3172.00000,547.79999
3174.00000,50.88782
3176.00000,358.23077
3178.00000,560.40625
3180.00000,232.90942
3182.00000,206.84120
3184.00000,191.75269
3186.00000,174.00056
3188.00000,224.77434
3190.00000,232.94598
3192.00000,73.14343
3194.00000,206.05536
3196.00000,329.34866
3198.00000,254.68121
3200.00000,291.43707
