300.00000,104.41259
302.00000,85.40612
304.00000,69.30712
306.00000,59.52810
308.00000,68.13277
310.00000,99.04353
312.00000,132.28690
314.00000,132.89252
316.00000,133.95299
318.00000,148.72812
320.00000,157.88069
322.00000,161.74174
324.00000,182.41989
326.00000,213.90685
328.00000,223.90892
330.00000,203.35742
332.00000,210.98001
334.00000,229.19684
336.00000,239.21536
338.00000,265.17239
340.00000,344.32242
342.00000,455.66104
344.00000,547.47327
346.00000,581.08795
348.00000,546.57458
350.00000,450.46802
352.00000,347.98322
354.00000,276.05087
356.00000,237.60985
358.00000,222.14905
360.00000,206.17780
362.00000,201.61995
364.00000,193.99059
366.00000,150.95029
368.00000,116.63692
370.00000,81.46632
372.00000,86.53297
374.00000,136.47462
376.00000,129.59981
378.00000,127.29638
380.00000,133.96674
382.00000,161.77235
384.00000,236.29138
386.00000,274.47629
388.00000,281.85910
390.00000,282.54623
392.00000,277.56180
394.00000,260.43066
396.00000,246.28604
398.00000,246.89487
400.00000,256.89670
402.00000,266.41870
404.00000,287.41614
406.00000,334.08234
408.00000,398.14276
410.00000,452.59741
412.00000,492.67453
414.00000,588.11182
416.00000,708.01587
418.00000,817.73584
420.00000,946.61676
422.00000,1124.62402
424.00000,1323.79871
426.00000,1504.24768
428.00000,1658.35681
430.00000,1803.98901
432.00000,1914.51025
434.00000,1999.48267
436.00000,2108.00073
438.00000,2255.36914
440.00000,2361.18359
442.00000,2417.97729
444.00000,2431.08105
446.00000,2412.27563
448.00000,2389.60181
450.00000,2353.61328
452.00000,2231.99731
454.00000,2023.32117
456.00000,1810.21423
458.00000,1630.79468
460.00000,1452.33105
462.00000,1282.15576
464.00000,1118.47021
466.00000,921.27179
468.00000,750.99524
470.00000,611.28680
472.00000,496.84235
474.00000,409.03506
476.00000,318.60474
478.00000,248.20717
480.00000,201.72507
482.00000,165.38232
484.00000,136.90210
486.00000,118.37119
488.00000,96.86004
490.00000,74.90811
492.00000,67.15798
494.00000,68.72900
496.00000,74.30193
498.00000,88.19534
500.00000,98.45071
502.00000,87.72365
504.00000,103.93786
506.00000,140.01920
508.00000,163.05817
510.00000,172.86636
512.00000,211.04375
514.00000,255.85278
516.00000,278.21649
518.00000,295.38489
520.00000,353.87122
522.00000,438.41513
524.00000,529.40051
526.00000,582.23907
528.00000,544.43652
530.00000,424.12039
532.00000,333.20715
534.00000,266.38916
536.00000,187.90251
538.00000,132.53261
540.00000,111.10289
542.00000,111.96989
544.00000,111.22248
546.00000,101.62714
548.00000,107.61298
550.00000,121.31992
552.00000,122.83323
554.00000,134.16382
556.00000,189.33342
558.00000,221.46561
560.00000,255.22809
562.00000,315.06143
564.00000,387.06433
566.00000,462.39841
568.00000,543.94940
570.00000,620.17621
572.00000,676.31842
574.00000,696.53320
576.00000,655.09290
578.00000,624.53888
580.00000,650.28815
582.00000,705.43207
584.00000,754.91833
586.00000,833.41962
588.00000,932.37817
590.00000,1026.62830
592.00000,1115.58142
594.00000,1208.85510
596.00000,1348.30359
598.00000,1484.12378
600.00000,1566.47888
602.00000,1671.61450
604.00000,1790.94360
606.00000,1881.19592
608.00000,1946.49304
610.00000,2025.47937
612.00000,2089.71704
614.00000,2123.99878
616.00000,2133.56030
618.00000,2093.02588
620.00000,1932.87817
622.00000,1673.04102
624.00000,1394.98962
626.00000,1158.77832
628.00000,962.18341
630.00000,779.14661
632.00000,630.76044
634.00000,524.09174
636.00000,443.64130
638.00000,372.14175
640.00000,276.65176
642.00000,205.50284
644.00000,181.85500
646.00000,163.19104
648.00000,141.91524
650.00000,124.69901
652.00000,107.59020
654.00000,96.34319
656.00000,109.75442
658.00000,105.79145
660.00000,96.67751
662.00000,106.57185
664.00000,133.36047
666.00000,169.61180
668.00000,183.38853
670.00000,198.61069
672.00000,257.97647
674.00000,360.95145
676.00000,505.39246
678.00000,607.25745
680.00000,608.64771
682.00000,532.98663
684.00000,419.28967
686.00000,290.00613
688.00000,195.81354
690.00000,155.28955
692.00000,115.35224
694.00000,76.35593
696.00000,65.91082
698.00000,74.25646
700.00000,69.81155
702.00000,72.17867
704.00000,89.67995
706.00000,114.40501
708.00000,135.86220
710.00000,158.97467
712.00000,210.17386
714.00000,268.68259
716.00000,295.28400
718.00000,297.58093
720.00000,341.42682
722.00000,366.11252
724.00000,374.42352
726.00000,390.86026
728.00000,379.85788
730.00000,353.45609
732.00000,313.40683
734.00000,263.67804
736.00000,229.98138
738.00000,248.56407
740.00000,309.31845
742.00000,383.00467
744.00000,427.84763
746.00000,411.97244
748.00000,369.67026
750.00000,298.56198
752.00000,206.56319
754.00000,134.10017
756.00000,108.41055
758.00000,94.92310
760.00000,89.74002
762.00000,97.38739
764.00000,96.83613
766.00000,89.15128
768.00000,77.62929
770.00000,60.24546
772.00000,47.24453
774.00000,64.05996
776.00000,65.25836
778.00000,50.10757
780.00000,44.88916
782.00000,49.01481
784.00000,49.17339
786.00000,57.15455
788.00000,59.35006
790.00000,43.02588
792.00000,51.21201
794.00000,73.41820
796.00000,62.49471
798.00000,36.45459
800.00000,66.78383
802.00000,96.79379
804.00000,106.16412
806.00000,131.85741
808.00000,194.26305
810.00000,240.65576
812.00000,262.44214
814.00000,245.52995
816.00000,197.51117
818.00000,151.03987
820.00000,95.67169
822.00000,62.86191
824.00000,67.92577
826.00000,79.23501
828.00000,59.06148
830.00000,51.33657
832.00000,71.89912
834.00000,89.34298
836.00000,84.91081
838.00000,114.64378
840.00000,142.05363
842.00000,132.86197
844.00000,106.22830
846.00000,103.37646
848.00000,138.07178
850.00000,146.76164
852.00000,137.71918
854.00000,177.05833
856.00000,157.54845
858.00000,146.91454
860.00000,164.02303
862.00000,153.03574
864.00000,124.96584
866.00000,120.49422
868.00000,110.99576
870.00000,93.94138
872.00000,101.50119
874.00000,70.82324
876.00000,67.53572
878.00000,83.95142
880.00000,71.45068
882.00000,71.51279
884.00000,64.71731
886.00000,66.18549
888.00000,86.98738
890.00000,114.04133
892.00000,152.62778
894.00000,127.69507
896.00000,89.33509
898.00000,91.91677
900.00000,50.92210
902.00000,73.40036
904.00000,87.89920
906.00000,62.92255
908.00000,74.64326
910.00000,44.85232
912.00000,44.25076
914.00000,64.34289
916.00000,49.44984
918.00000,34.17799
920.00000,19.40281
922.00000,34.14223
924.00000,58.69622
926.00000,45.01601
928.00000,46.53718
930.00000,70.79087
932.00000,91.12156
934.00000,99.43086
936.00000,117.63029
938.00000,124.25856
940.00000,136.97154
942.00000,158.92831
944.00000,164.58125
946.00000,168.38429
948.00000,218.59946
950.00000,266.23492
952.00000,276.72174
954.00000,326.06198
956.00000,388.00055
958.00000,463.74915
960.00000,538.83301
962.00000,585.02216
964.00000,633.30109
966.00000,678.74792
968.00000,701.76886
970.00000,667.98035
972.00000,559.84906
974.00000,477.39154
976.00000,447.58771
978.00000,420.24020
980.00000,370.06891
982.00000,364.28543
984.00000,355.13174
986.00000,382.60080
988.00000,466.41061
990.00000,516.43542
992.00000,601.15308
994.00000,769.00415
996.00000,1047.72595
998.00000,1401.96960
1000.00000,1659.69531
1002.00000,1687.61194
1004.00000,1469.91064
1006.00000,1087.07043
1008.00000,676.45477
1010.00000,405.00208
1012.00000,258.05969
1014.00000,181.91254
1016.00000,159.22180
1018.00000,156.41943
1020.00000,161.97197
1022.00000,196.03513
1024.00000,255.74174
1026.00000,313.99426
1028.00000,417.83069
1030.00000,505.04681
1032.00000,518.25745
1034.00000,479.23303
1036.00000,439.10742
1038.00000,392.43677
1040.00000,336.62442
1042.00000,281.75864
1044.00000,240.31882
1046.00000,232.52567
1048.00000,261.35483
1050.00000,287.85913
1052.00000,291.31125
1054.00000,334.81683
1056.00000,428.51242
1058.00000,553.53882
1060.00000,644.87115
1062.00000,636.34595
1064.00000,594.88519
1066.00000,525.77655
1068.00000,456.35379
1070.00000,405.66122
1072.00000,317.44781
1074.00000,296.41324
1076.00000,317.38007
1078.00000,346.29718
1080.00000,451.41714
1082.00000,617.54474
1084.00000,777.92645
1086.00000,852.60712
1088.00000,785.19727
1090.00000,589.99097
1092.00000,400.32056
1094.00000,293.46222
1096.00000,263.82941
1098.00000,272.93564
1100.00000,302.27258
1102.00000,367.21149
1104.00000,442.34491
1106.00000,493.93134
1108.00000,537.13721
1110.00000,520.70532
1112.00000,444.17670
1114.00000,363.02066
1116.00000,313.88718
1118.00000,249.27257
1120.00000,191.28976
1122.00000,141.41171
1124.00000,94.26111
1126.00000,88.80233
1128.00000,79.56577
1130.00000,51.43501
1132.00000,32.52672
1134.00000,41.95226
1136.00000,44.15183
1138.00000,40.96963
1140.00000,57.25817
1142.00000,83.94575
1144.00000,81.39022
1146.00000,128.92024
1148.00000,206.30441
1150.00000,291.24136
1152.00000,422.01047
1154.00000,585.54254
1156.00000,779.28503
1158.00000,945.27631
1160.00000,1006.56732
1162.00000,954.73535
1164.00000,841.64319
1166.00000,700.44489
1168.00000,552.53656
1170.00000,432.68124
1172.00000,374.91013
1174.00000,322.13980
1176.00000,325.24115
1178.00000,408.08459
1180.00000,425.35376
1182.00000,417.58911
1184.00000,411.54224
1186.00000,394.41415
1188.00000,365.16116
1190.00000,358.74893
1192.00000,360.20132
1194.00000,351.46512
1196.00000,342.53180
1198.00000,355.45193
1200.00000,372.46167
1202.00000,397.35263
1204.00000,387.84534
1206.00000,300.34338
1208.00000,222.01054
1210.00000,142.98564
1212.00000,88.91360
1214.00000,76.45880
1216.00000,65.99841
1218.00000,146.31651
1220.00000,251.52084
1222.00000,405.09448
1224.00000,715.68500
1226.00000,1055.35974
1228.00000,1307.45166
1230.00000,1399.81433
1232.00000,1293.73193
1234.00000,1020.33813
1236.00000,769.43866
1238.00000,637.63483
1240.00000,612.16486
1242.00000,614.75543
1244.00000,553.03748
1246.00000,447.26868
1248.00000,318.73065
1250.00000,222.40306
1252.00000,228.03580
1254.00000,202.76817
1256.00000,216.07510
1258.00000,290.45358
1260.00000,324.89001
1262.00000,319.10483
1264.00000,327.56674
1266.00000,344.11285
1268.00000,394.48590
1270.00000,562.42084
1272.00000,762.36298
1274.00000,1028.57117
1276.00000,1356.93469
1278.00000,1652.21582
1280.00000,1850.03284
1282.00000,1868.42920
1284.00000,1725.65173
1286.00000,1475.47900
1288.00000,1154.41650
1290.00000,885.61633
1292.00000,683.81128
1294.00000,508.10986
1296.00000,359.09808
1298.00000,288.57220
1300.00000,227.35094
1302.00000,186.11041
1304.00000,181.93018
1306.00000,161.70894
1308.00000,148.44400
1310.00000,157.75471
1312.00000,201.38219
1314.00000,261.32318
1316.00000,270.73898
1318.00000,255.07715
1320.00000,260.05414
1322.00000,270.84259
1324.00000,245.84738
1326.00000,256.82141
1328.00000,252.90013
1330.00000,259.69577
1332.00000,297.66019
1334.00000,223.72705
1336.00000,237.21548
1338.00000,256.53687
1340.00000,252.84764
1342.00000,416.55048
1344.00000,545.23566
1346.00000,735.07373
1348.00000,1018.28113
1350.00000,1335.52722
1352.00000,1778.58044
1354.00000,2256.03589
1356.00000,2615.45264
1358.00000,2755.04297
1360.00000,2646.52100
1362.00000,2303.28589
1364.00000,1914.79382
1366.00000,1644.05933
1368.00000,1523.86230
1370.00000,1513.21570
1372.00000,1598.34058
1374.00000,1611.09070
1376.00000,1513.38220
1378.00000,1423.84485
1380.00000,1203.38428
1382.00000,1097.94495
1384.00000,1109.93872
1386.00000,1128.29639
1388.00000,1335.93701
1390.00000,1450.57141
1392.00000,1426.61548
1394.00000,1255.41443
1396.00000,894.80377
1398.00000,675.00061
1400.00000,464.62424
1402.00000,257.87729
1404.00000,168.04662
1406.00000,93.65355
1408.00000,95.46259
1410.00000,81.79703
1412.00000,26.62934
1414.00000,29.18341
1416.00000,6.39089
1418.00000,15.11497
1420.00000,48.74570
1422.00000,41.96503
1424.00000,12.99897
1426.00000,12.75926
1428.00000,69.49095
1430.00000,124.69037
1432.00000,146.46202
1434.00000,301.21191
1436.00000,413.84265
1438.00000,450.81223
1440.00000,549.05096
1442.00000,738.42371
1444.00000,948.30658
1446.00000,1107.40393
1448.00000,1212.04102
1450.00000,1292.85083
1452.00000,1323.03931
1454.00000,1332.61841
1456.00000,1368.78503
1458.00000,1431.17139
1460.00000,1456.35791
1462.00000,1407.78821
1464.00000,1336.57727
1466.00000,1234.55444
1468.00000,1092.33533
1470.00000,1094.14819
1472.00000,1133.11987
1474.00000,1216.76294
1476.00000,1426.95935
1478.00000,1688.84473
1480.00000,1901.27136
1482.00000,2034.40918
1484.00000,2062.53271
1486.00000,1973.00684
1488.00000,1835.25610
1490.00000,1590.42932
1492.00000,1333.94482
1494.00000,1149.72375
1496.00000,931.31219
1498.00000,732.99677
1500.00000,583.80719
1502.00000,451.13049
1504.00000,309.29498
1506.00000,207.20007
1508.00000,150.16278
1510.00000,93.37756
1512.00000,28.82679
1514.00000,10.98222
1516.00000,12.85046
1518.00000,17.57015
1520.00000,25.22745
1522.00000,53.61957
1524.00000,123.33904
1526.00000,132.02736
1528.00000,139.49890
1530.00000,202.68260
1532.00000,222.50932
1534.00000,253.53114
1536.00000,334.44879
1538.00000,415.36734
1540.00000,450.71872
1542.00000,527.79456
1544.00000,686.91315
1546.00000,887.23761
1548.00000,1094.25049
1550.00000,1299.23706
1552.00000,1387.42725
1554.00000,1386.82141
1556.00000,1347.98950
1558.00000,1287.15747
1560.00000,1243.74011
1562.00000,1216.31189
1564.00000,1285.46240
1566.00000,1455.13281
1568.00000,1615.34631
1570.00000,1867.97644
1572.00000,2203.32397
1574.00000,2619.68018
1576.00000,3052.48730
1578.00000,3251.67920
1580.00000,3304.92871
1582.00000,3112.09741
1584.00000,2669.98608
1586.00000,2272.49072
1588.00000,1955.08765
1590.00000,1659.83118
1592.00000,1400.00647
1594.00000,1234.79492
1596.00000,1150.78748
1598.00000,1118.49243
1600.00000,1126.17822
1602.00000,1131.14941
1604.00000,1072.60352
1606.00000,982.25751
1608.00000,800.05493
1610.00000,603.60242
1612.00000,481.86609
1614.00000,318.31741
1616.00000,299.36267
1618.00000,263.08023
1620.00000,136.81010
1622.00000,148.46870
1624.00000,134.45471
1626.00000,124.27831
1628.00000,134.76540
1630.00000,119.69440
1632.00000,99.87962
1634.00000,49.84018
1636.00000,19.08056
1638.00000,29.50431
1640.00000,27.02040
1642.00000,25.42838
1644.00000,50.83292
1646.00000,51.82722
1648.00000,7.29120
1650.00000,21.71718
1652.00000,29.13321
1654.00000,34.20285
1656.00000,56.78333
1658.00000,58.35962
1660.00000,30.34840
1662.00000,30.53468
1664.00000,54.54224
1666.00000,57.66994
1668.00000,52.70102
1670.00000,62.32220
1672.00000,72.98691
1674.00000,70.64434
1676.00000,71.07833
1678.00000,88.53071
1680.00000,55.67430
1682.00000,16.13965
1684.00000,44.79715
1686.00000,77.08002
1688.00000,68.25398
1690.00000,89.15252
1692.00000,103.47921
1694.00000,34.31074
1696.00000,104.77937
1698.00000,153.96043
1700.00000,136.78394
1702.00000,155.06500
1704.00000,185.35428
1706.00000,184.67633
1708.00000,174.03586
1710.00000,170.39563
1712.00000,167.30893
1714.00000,198.51292
1716.00000,239.29353
1718.00000,210.80902
1720.00000,143.16663
1722.00000,197.30559
1724.00000,251.92397
1726.00000,234.53444
1728.00000,194.85664
1730.00000,184.69302
1732.00000,144.17548
1734.00000,190.48065
1736.00000,196.96912
1738.00000,90.86054
1740.00000,127.92376
1742.00000,155.24026
1744.00000,120.43747
1746.00000,104.23492
1748.00000,133.09868
1750.00000,84.18700
1752.00000,66.15299
1754.00000,82.86340
1756.00000,88.54642
1758.00000,124.50782
1760.00000,82.20758
1762.00000,28.42941
1764.00000,53.97923
1766.00000,131.40585
1768.00000,167.26700
1770.00000,116.74172
1772.00000,90.94907
1774.00000,111.26874
1776.00000,37.16434
1778.00000,70.34693
1780.00000,116.07273
1782.00000,101.58800
1784.00000,116.08044
1786.00000,143.82021
1788.00000,138.24312
1790.00000,97.34676
1792.00000,91.47972
1794.00000,160.02563
1796.00000,115.20039
1798.00000,81.06076
1800.00000,110.98991
1802.00000,102.27658
1804.00000,107.44633
1806.00000,93.36617
1808.00000,99.41723
1810.00000,117.54169
1812.00000,64.79475
1814.00000,101.58175
1816.00000,62.00545
1818.00000,21.25939
1820.00000,142.35292
1822.00000,77.20345
1824.00000,52.16739
1826.00000,49.26276
1828.00000,9.29740
1830.00000,81.60531
1832.00000,51.28511
1834.00000,41.76062
1836.00000,95.54946
1838.00000,94.47366
1840.00000,95.44270
1842.00000,115.50426
1844.00000,106.35892
1846.00000,107.23882
1848.00000,196.10281
1850.00000,157.21489
1852.00000,139.96835
1854.00000,175.41090
1856.00000,155.81989
1858.00000,207.06107
1860.00000,278.67090
1862.00000,288.70114
1864.00000,199.15953
1866.00000,83.55334
1868.00000,149.34767
1870.00000,80.63844
1872.00000,60.29857
1874.00000,288.71402
1876.00000,91.68663
1878.00000,125.59509
1880.00000,183.01746
1882.00000,44.79164
1884.00000,160.96121
1886.00000,175.32559
1888.00000,138.77968
1890.00000,138.47964
1892.00000,125.29525
1894.00000,116.31430
1896.00000,121.45400
1898.00000,145.43939
1900.00000,167.83347
1902.00000,161.52138
1904.00000,157.37018
1906.00000,151.14285
1908.00000,152.99452
1910.00000,162.42537
1912.00000,141.12932
1914.00000,164.35605
1916.00000,189.64848
1918.00000,169.60762
1920.00000,152.02716
1922.00000,161.93842
1924.00000,172.10039
1926.00000,156.83148
1928.00000,141.38496
1930.00000,171.72324
1932.00000,162.06818
1934.00000,184.14247
1936.00000,233.31932
1938.00000,180.24146
1940.00000,132.56946
1942.00000,144.02071
1944.00000,127.86024
1946.00000,83.59605
1948.00000,176.97247
1950.00000,147.49290
1952.00000,140.87926
1954.00000,172.62222
1956.00000,52.45859
1958.00000,149.14783
1960.00000,109.80634
1962.00000,33.07206
1964.00000,144.26373
1966.00000,71.72500
1968.00000,99.20445
1970.00000,125.92917
1972.00000,87.36354
1974.00000,139.54765
1976.00000,99.05737
1978.00000,81.67692
1980.00000,142.16011
1982.00000,182.06389
1984.00000,133.26300
1986.00000,70.63905
1988.00000,96.84145
1990.00000,134.60881
1992.00000,56.24683
1994.00000,39.94712
1996.00000,80.85019
1998.00000,79.80615
2000.00000,23.22658
2002.00000,25.71875
2004.00000,43.63899
2006.00000,61.25726
2008.00000,42.85327
2010.00000,44.71941
2012.00000,56.51834
2014.00000,46.48423
2016.00000,31.75197
2018.00000,66.28021
2020.00000,70.95573
2022.00000,51.79607
2024.00000,51.04696
2026.00000,36.97956
2028.00000,51.27711
2030.00000,48.82032
2032.00000,26.09793
2034.00000,57.61945
2036.00000,112.56470
2038.00000,73.29846
2040.00000,24.71402
2042.00000,78.22722
2044.00000,84.70308
2046.00000,54.75013
2048.00000,44.97430
2050.00000,65.88744
2052.00000,77.46602
2054.00000,59.76888
2056.00000,26.14905
2058.00000,38.15664
2060.00000,104.48000
2062.00000,94.41682
2064.00000,54.62633
2066.00000,58.37290
2068.00000,82.75085
2070.00000,53.44062
2072.00000,60.29753
2074.00000,57.01583
2076.00000,34.46672
2078.00000,59.99789
2080.00000,74.76558
2082.00000,69.22724
2084.00000,69.61039
2086.00000,74.86339
2088.00000,46.90165
2090.00000,31.17986
2092.00000,27.49867
2094.00000,30.19414
2096.00000,52.11832
2098.00000,54.53437
2100.00000,49.29433
2102.00000,51.49884
2104.00000,58.08038
2106.00000,67.32513
2108.00000,74.26917
2110.00000,68.63960
2112.00000,47.23127
2114.00000,26.18273
2116.00000,35.30358
2118.00000,73.86636
2120.00000,100.60314
2122.00000,95.94957
2124.00000,115.21315
2126.00000,84.75867
2128.00000,43.42219
2130.00000,56.42818
2132.00000,64.78595
2134.00000,76.12865
2136.00000,89.86952
2138.00000,99.99729
2140.00000,100.88892
2142.00000,72.52225
2144.00000,51.52170
2146.00000,73.30577
2148.00000,109.12478
2150.00000,87.57093
2152.00000,78.15658
2154.00000,97.07607
2156.00000,101.64714
2158.00000,73.24469
2160.00000,64.31204
2162.00000,86.85758
2164.00000,111.02869
2166.00000,101.56491
2168.00000,64.33855
2170.00000,75.43316
2172.00000,85.89397
2174.00000,53.10073
2176.00000,55.79805
2178.00000,56.86762
2180.00000,36.09544
2182.00000,35.02289
2184.00000,70.43327
2186.00000,40.88465
2188.00000,42.48373
2190.00000,82.05374
2192.00000,79.86552
2194.00000,46.40577
2196.00000,46.06804
2198.00000,59.46308
2200.00000,64.33721
2202.00000,79.49853
2204.00000,75.85589
2206.00000,81.77741
2208.00000,106.09564
2210.00000,116.52176
2212.00000,100.04655
2214.00000,114.09110
2216.00000,101.97594
2218.00000,46.93917
2220.00000,57.66307
2222.00000,90.62168
2224.00000,81.81250
2226.00000,61.40743
2228.00000,82.61991
2230.00000,76.19068
2232.00000,72.21793
2234.00000,64.63962
2236.00000,58.39239
2238.00000,110.70846
2240.00000,112.79831
2242.00000,67.27953
2244.00000,47.46592
2246.00000,80.64191
2248.00000,108.92854
2250.00000,78.80413
2252.00000,51.80435
2254.00000,101.38644
2256.00000,152.07068
2258.00000,106.69752
2260.00000,71.25533
2262.00000,111.64470
2264.00000,109.07674
2266.00000,45.90982
2268.00000,57.90382
2270.00000,126.45853
2272.00000,123.16792
2274.00000,103.10481
2276.00000,117.40709
2278.00000,119.18791
2280.00000,91.70922
2282.00000,105.35412
2284.00000,88.79768
2286.00000,65.59723
2288.00000,74.54408
2290.00000,86.93587
2292.00000,60.17509
2294.00000,69.27192
2296.00000,88.48464
2298.00000,60.13231
2300.00000,50.79721
2302.00000,87.07035
2304.00000,113.24467
2306.00000,90.04753
2308.00000,52.56905
2310.00000,48.21989
2312.00000,85.35447
2314.00000,101.78189
2316.00000,73.99930
2318.00000,95.82364
2320.00000,74.88247
2322.00000,46.98618
2324.00000,65.96286
2326.00000,74.82842
2328.00000,95.19167
2330.00000,91.16628
2332.00000,64.43621
2334.00000,70.00861
2336.00000,104.92912
2338.00000,92.03233
2340.00000,88.49296
2342.00000,128.24915
2344.00000,90.93944
2346.00000,59.29679
2348.00000,82.89185
2350.00000,108.54758
2352.00000,95.65919
2354.00000,152.58607
2356.00000,138.98601
2358.00000,75.27338
2360.00000,96.12099
2362.00000,141.73326
2364.00000,127.94340
2366.00000,108.15916
2368.00000,113.31846
2370.00000,91.42858
2372.00000,121.10682
2374.00000,149.24474
2376.00000,152.01031
2378.00000,157.66243
2380.00000,135.89484
2382.00000,144.15250
2384.00000,126.20819
2386.00000,76.47551
2388.00000,117.83742
2390.00000,110.64597
2392.00000,84.05910
2394.00000,91.33588
2396.00000,95.30268
2398.00000,77.17474
2400.00000,67.07761
2402.00000,81.33685
2404.00000,90.09052
2406.00000,56.60924
2408.00000,52.75571
2410.00000,87.50327
2412.00000,100.39928
2414.00000,62.71229
2416.00000,66.97626
2418.00000,82.33812
2420.00000,102.00198
2422.00000,137.02361
2424.00000,121.45159
2426.00000,99.38073
2428.00000,110.65140
2430.00000,108.89793
2432.00000,52.63223
2434.00000,119.83125
2436.00000,146.41191
2438.00000,82.75056
2440.00000,98.32364
2442.00000,174.81261
2444.00000,153.46063
2446.00000,109.89006
2448.00000,138.05240
2450.00000,119.52497
2452.00000,143.64267
2454.00000,146.27461
2456.00000,115.56823
2458.00000,145.06668
2460.00000,150.41530
2462.00000,97.44790
2464.00000,79.61570
2466.00000,128.65498
2468.00000,98.32624
2470.00000,112.24397
2472.00000,137.53775
2474.00000,110.84028
2476.00000,97.70623
2478.00000,121.66440
2480.00000,130.21321
2482.00000,102.35149
2484.00000,89.46475
2486.00000,136.57933
2488.00000,124.09858
2490.00000,77.17586
2492.00000,91.22816
2494.00000,131.11154
2496.00000,69.72373
2498.00000,63.89312
2500.00000,153.18080
2502.00000,159.94418
2504.00000,78.57433
2506.00000,38.01172
2508.00000,73.42723
2510.00000,108.44355
2512.00000,92.19082
2514.00000,109.55875
2516.00000,95.13942
2518.00000,52.06153
2520.00000,102.12965
2522.00000,144.98621
2524.00000,104.88068
2526.00000,64.33313
2528.00000,97.38528
2530.00000,87.75677
2532.00000,91.55756
2534.00000,90.87458
2536.00000,76.50477
2538.00000,105.34045
2540.00000,86.46615
2542.00000,99.09269
2544.00000,138.82129
2546.00000,107.94509
2548.00000,81.19846
2550.00000,123.57578
2552.00000,142.94939
2554.00000,94.66198
2556.00000,106.37629
2558.00000,102.89899
2560.00000,130.68916
2562.00000,159.77925
2564.00000,93.83671
2566.00000,91.59733
2568.00000,100.57214
2570.00000,60.18660
2572.00000,41.21686
2574.00000,129.38277
2576.00000,87.41245
2578.00000,32.87085
2580.00000,96.44544
2582.00000,122.70259
2584.00000,68.55432
2586.00000,51.35130
2588.00000,78.80435
2590.00000,67.46958
2592.00000,62.28078
2594.00000,94.81155
2596.00000,108.23221
2598.00000,84.54226
2600.00000,106.75179
2602.00000,146.50502
2604.00000,116.39636
2606.00000,86.98069
2608.00000,148.71518
2610.00000,94.43014
2612.00000,90.83931
2614.00000,144.02608
2616.00000,113.94258
2618.00000,48.77912
2620.00000,117.96146
2622.00000,185.88945
2624.00000,158.41878
2626.00000,156.62695
2628.00000,165.74899
2630.00000,191.91850
2632.00000,171.79860
2634.00000,119.27108
2636.00000,220.82845
2638.00000,212.57069
2640.00000,142.38986
2642.00000,172.20053
2644.00000,208.93587
2646.00000,125.36142
2648.00000,137.00114
2650.00000,219.20195
2652.00000,161.77802
2654.00000,153.47198
2656.00000,183.26889
2658.00000,168.30283
2660.00000,122.63757
2662.00000,137.40295
2664.00000,119.76334
2666.00000,127.88850
2668.00000,168.70724
2670.00000,136.78937
2672.00000,78.46208
2674.00000,97.69300
2676.00000,129.92043
2678.00000,90.07006
2680.00000,89.45852
2682.00000,132.72542
2684.00000,110.04819
2686.00000,54.83115
2688.00000,111.83530
2690.00000,98.93399
2692.00000,56.68325
2694.00000,57.20704
2696.00000,73.25214
2698.00000,66.09803
2700.00000,83.86440
2702.00000,75.89415
2704.00000,36.08721
2706.00000,68.56588
2708.00000,61.37600
2710.00000,61.22588
2712.00000,75.65486
2714.00000,36.17407
2716.00000,24.34129
2718.00000,74.88840
2720.00000,130.72659
2722.00000,119.33829
2724.00000,61.98192
2726.00000,86.03092
2728.00000,125.97311
2730.00000,119.38064
2732.00000,129.94942
2734.00000,157.09929
2736.00000,132.71704
2738.00000,132.17708
2740.00000,182.26668
2742.00000,83.08087
2744.00000,133.98882
2746.00000,191.04114
2748.00000,80.17849
2750.00000,45.84865
2752.00000,162.71851
2754.00000,173.42726
2756.00000,58.46964
2758.00000,46.32141
2760.00000,103.07400
2762.00000,116.40239
2764.00000,89.45746
2766.00000,67.75161
2768.00000,47.08037
2770.00000,91.75259
2772.00000,77.73898
2774.00000,44.72931
2776.00000,125.61974
2778.00000,46.38269
2780.00000,22.69888
2782.00000,72.09414
2784.00000,50.87776
2786.00000,64.35909
2788.00000,69.94553
2790.00000,70.70091
2792.00000,71.97541
2794.00000,59.18177
2796.00000,106.13116
2798.00000,68.26886
2800.00000,19.07183
2802.00000,102.49479
2804.00000,94.41053
2806.00000,72.97148
2808.00000,113.22514
2810.00000,164.98709
2812.00000,154.80414
2814.00000,162.80812
2816.00000,183.20139
2818.00000,166.41843
2820.00000,128.49971
2822.00000,172.17506
2824.00000,249.28209
2826.00000,248.58403
2828.00000,203.13383
2830.00000,280.98288
2832.00000,296.21185
2834.00000,348.24365
2836.00000,445.36264
2838.00000,418.10583
2840.00000,486.32303
2842.00000,549.45740
2844.00000,598.65607
2846.00000,723.00671
2848.00000,815.24921
2850.00000,833.88354
2852.00000,918.72229
2854.00000,1018.29633
2856.00000,933.93469
2858.00000,1073.92041
2860.00000,1176.27124
2862.00000,1129.49866
2864.00000,1185.10095
2866.00000,1275.90417
2868.00000,1177.18225
2870.00000,1158.52588
2872.00000,1344.40723
2874.00000,1291.43860
2876.00000,1272.50928
2878.00000,1243.36475
2880.00000,1208.77979
2882.00000,1329.86230
2884.00000,1372.67224
2886.00000,1265.14380
2888.00000,1215.06470
2890.00000,1308.05286
2892.00000,1291.96997
2894.00000,1430.63647
2896.00000,1510.64124
2898.00000,1422.44702
2900.00000,1480.56506
2902.00000,1559.06885
2904.00000,1537.98901
2906.00000,1515.13904
2908.00000,1586.54663
2910.00000,1584.39587
2912.00000,1603.49255
2914.00000,1625.13757
2916.00000,1607.03479
2918.00000,1619.57422
2920.00000,1603.29553
2922.00000,1572.01941
2924.00000,1570.13489
2926.00000,1553.18860
2928.00000,1405.44189
2930.00000,1419.41467
2932.00000,1504.35339
2934.00000,1421.11914
2936.00000,1313.46130
2938.00000,1247.15576
2940.00000,1216.11218
2942.00000,1146.86487
2944.00000,1008.78589
2946.00000,963.62225
2948.00000,911.41125
2950.00000,814.64581
2952.00000,735.33575
2954.00000,670.02472
2956.00000,719.73730
2958.00000,680.78375
2960.00000,546.62946
2962.00000,636.52856
2964.00000,670.52911
2966.00000,553.72620
2968.00000,442.27911
2970.00000,451.79593
2972.00000,429.61526
2974.00000,427.38919
2976.00000,366.31503
2978.00000,244.96581
2980.00000,272.30847
2982.00000,252.55815
2984.00000,155.74840
2986.00000,127.07597
2988.00000,189.39331
2990.00000,61.28410
2992.00000,-24.33202
2994.00000,27.34561
2996.00000,73.91095
2998.00000,64.72965
3000.00000,41.81122
3002.00000,21.58007
3004.00000,31.87986
3006.00000,87.94636
3008.00000,78.40623
3010.00000,132.77414
3012.00000,137.91373
3014.00000,1.36653
3016.00000,115.99968
3018.00000,110.78746
3020.00000,35.52678
3022.00000,148.43024
3024.00000,312.45627
3026.00000,263.59955
3028.00000,345.46643
3030.00000,546.78656
3032.00000,520.99268
3034.00000,601.00323
3036.00000,733.52844
3038.00000,793.81366
3040.00000,819.06372
3042.00000,924.65576
3044.00000,1000.22107
3046.00000,1079.90015
3048.00000,1187.06763
3050.00000,1259.93286
3052.00000,1375.12170
3054.00000,1590.92456
3056.00000,1686.42065
3058.00000,1597.96130
3060.00000,1730.39355
3062.00000,1624.84021
3064.00000,1486.22778
3066.00000,1518.56482
3068.00000,1356.41077
3070.00000,1165.28296
3072.00000,1096.68848
3074.00000,1018.55090
3076.00000,829.99030
3078.00000,810.20001
3080.00000,614.27338
3082.00000,488.79361
3084.00000,606.17206
3086.00000,473.70313
3088.00000,507.53329
3090.00000,496.06464
3092.00000,327.12109
3094.00000,316.22183
3096.00000,401.42108
3098.00000,410.16479
3100.00000,358.64713
3102.00000,358.13669
3104.00000,387.73911
3106.00000,396.25900
3108.00000,496.57031
3110.00000,506.98257
3112.00000,211.13637
3114.00000,373.56335
3116.00000,277.94980
3118.00000,81.71328
3120.00000,438.11838
3122.00000,456.49811
3124.00000,296.85464
3126.00000,254.54752
3128.00000,363.71848
3130.00000,417.89813
3132.00000,87.09975
3134.00000,132.36874
3136.00000,384.06235
3138.00000,85.14931
3140.00000,196.09406
3142.00000,239.67520
3144.00000,83.99779
3146.00000,56.25242
3148.00000,116.50063
3150.00000,191.35890
3152.00000,84.98553
3154.00000,25.95408
3156.00000,281.79379
3158.00000,71.11758
3160.00000,240.29686
3162.00000,431.00223
3164.00000,61.74096
3166.00000,426.96902
3168.00000,329.78021
3170.00000,133.76842
3172.00000,390.50504
3174.00000,388.59421
3176.00000,402.03659
3178.00000,400.57468
3180.00000,325.71780
3182.00000,312.51306
3184.00000,426.02286
3186.00000,398.20209
3188.00000,391.48065
3190.00000,548.10968
3192.00000,539.41498
3194.00000,435.03934
3196.00000,441.67917
3198.00000,500.92996
3200.00000,329.84024
