300.00000,42.49729
302.00000,31.62212
304.00000,34.24265
306.00000,46.96675
308.00000,53.61960
310.00000,55.40495
312.00000,69.71798
314.00000,88.62677
316.00000,104.92810
318.00000,107.98669
320.00000,99.84364
322.00000,103.56921
324.00000,107.87299
326.00000,115.86441
328.00000,136.46176
330.00000,155.54831
332.00000,138.75333
334.00000,134.44594
336.00000,163.05493
338.00000,192.94455
340.00000,207.74289
342.00000,252.86632
344.00000,300.13593
346.00000,293.79688
348.00000,238.73317
350.00000,211.25262
352.00000,203.79082
354.00000,182.48354
356.00000,149.57478
358.00000,140.83504
360.00000,140.68356
362.00000,137.01248
364.00000,135.64616
366.00000,140.03563
368.00000,129.89510
370.00000,117.75423
372.00000,111.56613
374.00000,111.93371
376.00000,123.93086
378.00000,132.11160
380.00000,140.47870
382.00000,159.55054
384.00000,187.01750
386.00000,206.90700
388.00000,202.79672
390.00000,198.20222
392.00000,216.44679
394.00000,238.52284
396.00000,264.52145
398.00000,293.83832
400.00000,323.44901
402.00000,361.23282
404.00000,429.23880
406.00000,503.71841
408.00000,584.60303
410.00000,683.00006
412.00000,786.05389
414.00000,898.50177
416.00000,1030.65710
418.00000,1187.77966
420.00000,1358.15698
422.00000,1513.65332
424.00000,1668.47852
426.00000,1854.35596
428.00000,2065.68921
430.00000,2255.31958
432.00000,2432.97290
434.00000,2610.24731
436.00000,2792.19458
438.00000,2969.58643
440.00000,3110.67822
442.00000,3214.76489
444.00000,3288.42017
446.00000,3311.89307
448.00000,3250.93213
450.00000,3134.24683
452.00000,2981.00342
454.00000,2787.21167
456.00000,2544.10962
458.00000,2261.45435
460.00000,1964.38220
462.00000,1688.93201
464.00000,1452.39563
466.00000,1239.75269
468.00000,1040.48608
470.00000,851.04120
472.00000,687.39471
474.00000,558.00775
476.00000,431.69864
478.00000,323.47891
480.00000,242.91861
482.00000,181.25626
484.00000,130.12332
486.00000,97.56966
488.00000,81.13380
490.00000,72.31729
492.00000,61.56392
494.00000,41.94381
496.00000,29.50698
498.00000,30.00395
500.00000,36.91226
502.00000,42.30147
504.00000,41.03094
506.00000,47.68448
508.00000,59.69912
510.00000,64.15382
512.00000,74.25362
514.00000,98.65596
516.00000,121.68932
518.00000,123.87803
520.00000,111.23244
522.00000,119.70839
524.00000,158.79663
526.00000,187.05797
528.00000,169.63144
530.00000,144.33957
532.00000,127.20047
534.00000,98.27026
536.00000,63.27911
538.00000,60.07411
540.00000,63.40215
542.00000,60.68052
544.00000,60.32181
546.00000,65.90185
548.00000,65.20868
550.00000,87.72766
552.00000,129.45152
554.00000,159.52283
556.00000,172.76331
558.00000,219.87968
560.00000,284.65454
562.00000,327.01740
564.00000,355.32233
566.00000,431.61551
568.00000,528.24536
570.00000,604.48370
572.00000,658.14185
574.00000,713.62152
576.00000,768.09576
578.00000,840.38690
580.00000,930.07452
582.00000,1021.25055
584.00000,1116.06848
586.00000,1219.81189
588.00000,1342.38684
590.00000,1486.88013
592.00000,1637.81360
594.00000,1771.04980
596.00000,1920.66577
598.00000,2075.69653
600.00000,2211.90308
602.00000,2361.62305
604.00000,2489.79468
606.00000,2562.45093
608.00000,2598.15259
610.00000,2630.45923
612.00000,2620.11499
614.00000,2589.16113
616.00000,2523.66211
618.00000,2382.03174
620.00000,2176.49438
622.00000,1963.92834
624.00000,1735.65198
626.00000,1468.61023
628.00000,1202.30762
630.00000,1027.20190
632.00000,890.93536
634.00000,740.69604
636.00000,598.63397
638.00000,512.33673
640.00000,437.55209
642.00000,353.30469
644.00000,278.10678
646.00000,228.99518
648.00000,185.60071
650.00000,155.83661
652.00000,135.29300
654.00000,110.96246
656.00000,89.16276
658.00000,84.57404
660.00000,92.24836
662.00000,86.36115
664.00000,59.95864
666.00000,63.45883
668.00000,89.33892
670.00000,102.51438
672.00000,112.92381
674.00000,172.19876
676.00000,222.46678
678.00000,242.10104
680.00000,242.24823
682.00000,223.95107
684.00000,172.74046
686.00000,124.43667
688.00000,96.05221
690.00000,71.61906
692.00000,39.66116
694.00000,30.22061
696.00000,38.58942
698.00000,39.61808
700.00000,27.13629
702.00000,31.60603
704.00000,68.59837
706.00000,69.02559
708.00000,38.53685
710.00000,97.31306
712.00000,126.89973
714.00000,114.64340
716.00000,96.87334
718.00000,92.02074
720.00000,123.03219
722.00000,131.12080
724.00000,117.81335
726.00000,114.59558
728.00000,111.67990
730.00000,107.97314
732.00000,102.47153
734.00000,80.49057
736.00000,44.79713
738.00000,47.20266
740.00000,77.49674
742.00000,105.27509
744.00000,118.08803
746.00000,121.26350
748.00000,104.00758
750.00000,79.67122
752.00000,55.45563
754.00000,29.31103
756.00000,17.48818
758.00000,33.28299
760.00000,46.82866
762.00000,37.21367
764.00000,29.99457
766.00000,38.81425
768.00000,66.62285
770.00000,78.57780
772.00000,55.64912
774.00000,57.04826
776.00000,68.09776
778.00000,66.34100
780.00000,65.37061
782.00000,88.56963
784.00000,96.16209
786.00000,87.87624
788.00000,78.91354
790.00000,81.28236
792.00000,101.31703
794.00000,98.26731
796.00000,86.05981
798.00000,82.87034
800.00000,70.57870
802.00000,68.68560
804.00000,82.02792
806.00000,94.15855
808.00000,99.03512
810.00000,120.42889
812.00000,140.84572
814.00000,133.04396
816.00000,107.29130
818.00000,100.38802
820.00000,95.99005
822.00000,73.25237
824.00000,53.62128
826.00000,60.60598
828.00000,65.52039
830.00000,72.90147
832.00000,92.24899
834.00000,116.89605
836.00000,126.19822
838.00000,111.68380
840.00000,106.85317
842.00000,112.14739
844.00000,102.80772
846.00000,91.95975
848.00000,116.25220
850.00000,126.74192
852.00000,108.91460
854.00000,115.27400
856.00000,105.30386
858.00000,86.83004
860.00000,86.79105
862.00000,103.62270
864.00000,104.06075
866.00000,88.05328
868.00000,58.77132
870.00000,40.53199
872.00000,60.05684
874.00000,78.95150
876.00000,72.35773
878.00000,54.21821
880.00000,48.35983
882.00000,51.02014
884.00000,47.23433
886.00000,44.67107
888.00000,56.26698
890.00000,76.98645
892.00000,85.42883
894.00000,81.53437
896.00000,77.76643
898.00000,79.54315
900.00000,77.63236
902.00000,70.40018
904.00000,66.77689
906.00000,61.16726
908.00000,45.76013
910.00000,52.82850
912.00000,79.54638
914.00000,78.65594
916.00000,47.84987
918.00000,57.57560
920.00000,56.44074
922.00000,41.37034
924.00000,35.21160
926.00000,38.86872
928.00000,42.62943
930.00000,41.30286
932.00000,41.93864
934.00000,52.58468
936.00000,65.22573
938.00000,56.51784
940.00000,37.09180
942.00000,33.60584
944.00000,53.92525
946.00000,75.45648
948.00000,97.66576
950.00000,108.61670
952.00000,110.38619
954.00000,133.06609
956.00000,152.85461
958.00000,153.44565
960.00000,178.15601
962.00000,246.48763
964.00000,249.15416
966.00000,261.12457
968.00000,270.06802
970.00000,238.04721
972.00000,225.62000
974.00000,205.46284
976.00000,197.96959
978.00000,194.33575
980.00000,170.52135
982.00000,186.71928
984.00000,206.32574
986.00000,221.82814
988.00000,254.73219
990.00000,307.09158
992.00000,392.50208
994.00000,520.63361
996.00000,707.26221
998.00000,941.16003
1000.00000,1123.46912
1002.00000,1110.70020
1004.00000,920.43860
1006.00000,661.43994
1008.00000,409.25961
1010.00000,239.72716
1012.00000,133.16507
1014.00000,78.17486
1016.00000,74.32134
1018.00000,60.59514
1020.00000,73.33498
1022.00000,103.35626
1024.00000,141.28983
1026.00000,220.50426
1028.00000,291.01694
1030.00000,321.68909
1032.00000,323.26627
1034.00000,313.36630
1036.00000,281.15540
1038.00000,242.56261
1040.00000,199.11888
1042.00000,162.18808
1044.00000,158.33321
1046.00000,160.27466
1048.00000,144.39713
1050.00000,135.16153
1052.00000,157.60306
1054.00000,177.77554
1056.00000,222.27254
1058.00000,273.19818
1060.00000,301.07376
1062.00000,311.93207
1064.00000,303.58716
1066.00000,272.73273
1068.00000,241.84789
1070.00000,220.86275
1072.00000,177.21660
1074.00000,175.02100
1076.00000,205.45950
1078.00000,223.52806
1080.00000,245.64851
1082.00000,343.53360
1084.00000,461.09042
1086.00000,495.67166
1088.00000,419.44815
1090.00000,313.18411
1092.00000,211.82991
1094.00000,152.79048
1096.00000,135.00815
1098.00000,119.38696
1100.00000,125.88622
1102.00000,145.85747
1104.00000,176.78345
1106.00000,207.30554
1108.00000,198.70735
1110.00000,196.41946
1112.00000,185.76694
1114.00000,149.67097
1116.00000,123.91976
1118.00000,122.86101
1120.00000,98.42643
1122.00000,58.62905
1124.00000,44.82103
1126.00000,41.13788
1128.00000,35.35246
1130.00000,26.91106
1132.00000,23.72242
1134.00000,33.69343
1136.00000,50.02612
1138.00000,40.14279
1140.00000,45.45495
1142.00000,87.50990
1144.00000,84.60289
1146.00000,117.55832
1148.00000,155.69017
1150.00000,190.73582
1152.00000,284.42975
1154.00000,367.98489
1156.00000,430.58295
1158.00000,478.44742
1160.00000,496.45486
1162.00000,461.90088
1164.00000,394.54456
1166.00000,333.72354
1168.00000,282.49820
1170.00000,225.12157
1172.00000,201.36964
1174.00000,189.10535
1176.00000,213.23907
1178.00000,262.29169
1180.00000,237.48613
1182.00000,250.52124
1184.00000,275.15106
1186.00000,261.46884
1188.00000,237.32430
1190.00000,214.14903
1192.00000,213.43877
1194.00000,241.97504
1196.00000,270.55017
1198.00000,256.17297
1200.00000,227.44472
1202.00000,239.03764
1204.00000,250.04053
1206.00000,191.74039
1208.00000,155.36017
1210.00000,110.73300
1212.00000,77.03825
1214.00000,73.09743
1216.00000,44.21662
1218.00000,62.51735
1220.00000,119.78371
1222.00000,199.53798
1224.00000,320.07031
1226.00000,460.43503
1228.00000,571.58856
1230.00000,602.45868
1232.00000,540.63214
1234.00000,429.12601
1236.00000,322.83820
1238.00000,276.83447
1240.00000,276.33789
1242.00000,259.74939
1244.00000,224.00441
1246.00000,193.29160
1248.00000,158.90570
1250.00000,116.22324
1252.00000,100.00566
1254.00000,116.53989
1256.00000,126.79774
1258.00000,123.32912
1260.00000,135.54478
1262.00000,158.68076
1264.00000,164.96780
1266.00000,183.41882
1268.00000,230.43196
1270.00000,271.56625
1272.00000,357.18002
1274.00000,501.86523
1276.00000,645.26410
1278.00000,739.80847
1280.00000,834.20874
1282.00000,843.63306
1284.00000,751.14270
1286.00000,619.22253
1288.00000,500.44473
1290.00000,402.85422
1292.00000,329.07321
1294.00000,262.48157
1296.00000,194.79036
1298.00000,163.74423
1300.00000,159.37158
1302.00000,151.48483
1304.00000,128.06157
1306.00000,118.94801
1308.00000,175.79915
1310.00000,227.81427
1312.00000,217.72168
1314.00000,186.73303
1316.00000,207.52150
1318.00000,210.88367
1320.00000,205.93326
1322.00000,214.55959
1324.00000,208.38037
1326.00000,240.31975
1328.00000,239.91968
1330.00000,227.50995
1332.00000,256.83606
1334.00000,221.35904
1336.00000,175.18419
1338.00000,183.91583
1340.00000,219.73714
1342.00000,223.44597
1344.00000,280.27744
1346.00000,375.20169
1348.00000,466.91534
1350.00000,593.94617
1352.00000,838.01648
1354.00000,1043.17017
1356.00000,1167.26074
1358.00000,1207.26074
1360.00000,1117.26379
1362.00000,969.06537
1364.00000,789.05432
1366.00000,660.02460
1368.00000,632.14880
1370.00000,610.27063
1372.00000,661.33698
1374.00000,687.07690
1376.00000,645.29791
1378.00000,621.24908
1380.00000,496.35794
1382.00000,456.06470
1384.00000,516.67755
1386.00000,533.41272
1388.00000,540.52155
1390.00000,593.48627
1392.00000,630.93176
1394.00000,557.82697
1396.00000,389.54352
1398.00000,282.64441
1400.00000,186.40211
1402.00000,112.60728
1404.00000,102.02672
1406.00000,62.39806
1408.00000,23.43900
1410.00000,13.71502
1412.00000,17.34904
1414.00000,7.59949
1416.00000,1.11468
1418.00000,8.31589
1420.00000,15.74192
1422.00000,16.58992
1424.00000,28.51615
1426.00000,30.57364
1428.00000,56.02818
1430.00000,114.28961
1432.00000,151.11636
1434.00000,145.99487
1436.00000,204.61937
1438.00000,306.09253
1440.00000,366.12643
1442.00000,419.46747
1444.00000,504.23898
1446.00000,584.14423
1448.00000,640.07471
1450.00000,683.39459
1452.00000,669.46069
1454.00000,659.64551
1456.00000,689.06580
1458.00000,724.15753
1460.00000,715.75598
1462.00000,661.25629
1464.00000,615.75073
1466.00000,598.65363
1468.00000,580.05615
1470.00000,565.72083
1472.00000,556.63464
1474.00000,580.60443
1476.00000,661.35266
1478.00000,770.24506
1480.00000,848.01129
1482.00000,885.52179
1484.00000,889.08502
1486.00000,848.77209
1488.00000,761.55048
1490.00000,681.88989
1492.00000,604.68762
1494.00000,504.78519
1496.00000,408.57150
1498.00000,325.77164
1500.00000,264.65082
1502.00000,215.31914
1504.00000,166.08652
1506.00000,135.75571
1508.00000,95.35890
1510.00000,49.25480
1512.00000,34.64098
1514.00000,60.16890
1516.00000,64.82654
1518.00000,44.57246
1520.00000,19.32457
1522.00000,12.12665
1524.00000,50.34077
1526.00000,49.35608
1528.00000,39.64070
1530.00000,68.06055
1532.00000,75.87365
1534.00000,76.67401
1536.00000,112.02086
1538.00000,179.28798
1540.00000,229.47748
1542.00000,242.96497
1544.00000,305.97186
1546.00000,408.87830
1548.00000,497.00867
1550.00000,573.60663
1552.00000,635.06610
1554.00000,636.45227
1556.00000,586.65277
1558.00000,554.83990
1560.00000,571.49750
1562.00000,579.37683
1564.00000,609.08734
1566.00000,691.72522
1568.00000,785.57507
1570.00000,928.05023
1572.00000,1114.03052
1574.00000,1269.61584
1576.00000,1359.35864
1578.00000,1466.44421
1580.00000,1518.43237
1582.00000,1439.69287
1584.00000,1273.93262
1586.00000,1111.64221
1588.00000,874.93158
1590.00000,740.83209
1592.00000,689.49213
1594.00000,593.59253
1596.00000,614.10938
1598.00000,620.07599
1600.00000,655.57129
1602.00000,693.03802
1604.00000,575.05164
1606.00000,580.33502
1608.00000,496.86206
1610.00000,321.88156
1612.00000,262.71735
1614.00000,198.03485
1616.00000,149.47816
1618.00000,120.18204
1620.00000,97.55508
1622.00000,85.36254
1624.00000,52.99083
1626.00000,47.70126
1628.00000,55.59618
1630.00000,44.97758
1632.00000,67.38576
1634.00000,40.56934
1636.00000,42.55252
1638.00000,75.02012
1640.00000,23.20842
1642.00000,59.19413
1644.00000,75.09239
1646.00000,43.59073
1648.00000,48.24662
1650.00000,53.70712
1652.00000,52.56926
1654.00000,25.48450
1656.00000,14.53151
1658.00000,78.69721
1660.00000,107.09794
1662.00000,104.54077
1664.00000,97.54542
1666.00000,81.49192
1668.00000,57.85607
1670.00000,62.53073
1672.00000,95.32795
1674.00000,95.38915
1676.00000,38.49928
1678.00000,60.55635
1680.00000,89.74721
1682.00000,87.27212
1684.00000,105.20730
1686.00000,142.52794
1688.00000,82.25130
1690.00000,87.01054
1692.00000,141.95206
1694.00000,53.26467
1696.00000,92.23329
1698.00000,109.19165
1700.00000,70.61191
1702.00000,83.70560
1704.00000,100.40291
1706.00000,90.46316
1708.00000,57.23111
1710.00000,66.44908
1712.00000,132.70795
1714.00000,81.68578
1716.00000,69.70271
1718.00000,91.05493
1720.00000,83.88773
1722.00000,159.71758
1724.00000,125.73158
1726.00000,131.04027
1728.00000,187.01639
1730.00000,125.25082
1732.00000,182.00302
1734.00000,153.29318
1736.00000,138.67940
1738.00000,230.21532
1740.00000,133.06255
1742.00000,152.91521
1744.00000,185.52928
1746.00000,128.81694
1748.00000,114.36213
1750.00000,108.86771
1752.00000,86.32566
1754.00000,90.94618
1756.00000,104.30227
1758.00000,42.12972
1760.00000,93.75864
1762.00000,88.40448
1764.00000,18.59146
1766.00000,69.19135
1768.00000,51.78891
1770.00000,82.68349
1772.00000,123.44020
1774.00000,111.85241
1776.00000,149.81099
1778.00000,84.82239
1780.00000,104.29459
1782.00000,186.63158
1784.00000,104.80917
1786.00000,53.60633
1788.00000,123.86407
1790.00000,123.38500
1792.00000,38.36671
1794.00000,144.72293
1796.00000,130.74162
1798.00000,71.99774
1800.00000,93.78783
1802.00000,119.35258
1804.00000,84.09160
1806.00000,60.52168
1808.00000,90.17645
1810.00000,127.41637
1812.00000,116.43089
1814.00000,122.64285
1816.00000,148.94785
1818.00000,142.89439
1820.00000,108.63850
1822.00000,147.81538
1824.00000,154.92471
1826.00000,131.44368
1828.00000,138.66197
1830.00000,144.85544
1832.00000,100.80451
1834.00000,152.74657
1836.00000,197.75586
1838.00000,107.64444
1840.00000,191.70174
1842.00000,145.04793
1844.00000,122.51154
1846.00000,212.82085
1848.00000,109.63344
1850.00000,189.22177
1852.00000,179.69019
1854.00000,104.74733
1856.00000,204.75241
1858.00000,135.61713
1860.00000,128.49973
1862.00000,141.16212
1864.00000,121.77623
1866.00000,219.97749
1868.00000,174.81093
1870.00000,142.41313
1872.00000,170.67192
1874.00000,144.50110
1876.00000,151.27240
1878.00000,140.77254
1880.00000,136.66106
1882.00000,103.70964
1884.00000,2.96167
1886.00000,139.66896
1888.00000,129.52928
1890.00000,72.52127
1892.00000,220.54176
1894.00000,69.61615
1896.00000,88.09185
1898.00000,136.84998
1900.00000,49.65162
1902.00000,118.09973
1904.00000,168.99426
1906.00000,171.02037
1908.00000,144.21149
1910.00000,115.93936
1912.00000,147.38507
1914.00000,144.57950
1916.00000,143.99933
1918.00000,150.07675
1920.00000,100.67245
1922.00000,140.40102
1924.00000,158.74815
1926.00000,117.81197
1928.00000,126.44279
1930.00000,214.40674
1932.00000,204.10555
1934.00000,196.62296
1936.00000,222.61838
1938.00000,153.06081
1940.00000,180.57999
1942.00000,180.02019
1944.00000,102.91390
1946.00000,93.15405
1948.00000,209.70880
1950.00000,161.32536
1952.00000,123.12903
1954.00000,149.13098
1956.00000,23.35880
1958.00000,37.37614
1960.00000,161.31064
1962.00000,191.59868
1964.00000,110.64497
1966.00000,133.27982
1968.00000,117.32555
1970.00000,149.48836
1972.00000,201.57338
1974.00000,107.83328
1976.00000,107.40180
1978.00000,153.10185
1980.00000,166.07222
1982.00000,160.50464
1984.00000,160.79662
1986.00000,131.68146
1988.00000,127.71972
1990.00000,148.76369
1992.00000,131.04753
1994.00000,126.65387
1996.00000,92.99397
1998.00000,111.36156
2000.00000,8.66681
2002.00000,12.03892
2004.00000,15.41024
2006.00000,15.34668
2008.00000,29.20531
2010.00000,37.22587
2012.00000,36.63638
2014.00000,26.65817
2016.00000,12.39109
2018.00000,23.59549
2020.00000,38.78576
2022.00000,32.81073
2024.00000,16.93296
2026.00000,27.10943
2028.00000,43.40628
2030.00000,33.90325
2032.00000,23.19770
2034.00000,50.70661
2036.00000,48.53577
2038.00000,39.48735
2040.00000,39.08161
2042.00000,33.45536
2044.00000,32.27135
2046.00000,48.11221
2048.00000,43.42740
2050.00000,11.47557
2052.00000,7.82257
2054.00000,30.93569
2056.00000,41.84023
2058.00000,32.18652
2060.00000,30.64166
2062.00000,48.64161
2064.00000,49.13383
2066.00000,29.29661
2068.00000,25.52563
2070.00000,55.23920
2072.00000,56.95273
2074.00000,43.65972
2076.00000,45.46620
2078.00000,53.75805
2080.00000,47.89978
2082.00000,34.98627
2084.00000,27.02608
2086.00000,30.04239
2088.00000,43.37137
2090.00000,51.56595
2092.00000,49.19780
2094.00000,53.85221
2096.00000,72.56402
2098.00000,49.34884
2100.00000,21.31222
2102.00000,33.57675
2104.00000,68.09990
2106.00000,62.18685
2108.00000,28.46702
2110.00000,37.52279
2112.00000,82.33002
2114.00000,67.91961
2116.00000,48.01952
2118.00000,32.27882
2120.00000,26.61040
2122.00000,44.92217
2124.00000,54.92549
2126.00000,56.50610
2128.00000,45.54104
2130.00000,36.67561
2132.00000,69.56210
2134.00000,98.06348
2136.00000,71.18591
2138.00000,39.64664
2140.00000,77.57175
2142.00000,75.34660
2144.00000,58.99055
2146.00000,69.22104
2148.00000,81.80519
2150.00000,55.07867
2152.00000,45.33428
2154.00000,65.31393
2156.00000,69.92039
2158.00000,39.13403
2160.00000,58.66230
2162.00000,78.65121
2164.00000,82.05104
2166.00000,95.16728
2168.00000,62.40681
2170.00000,42.15959
2172.00000,57.14299
2174.00000,76.35188
2176.00000,78.20848
2178.00000,77.62346
2180.00000,58.73685
2182.00000,42.00111
2184.00000,71.18280
2186.00000,101.72498
2188.00000,74.41612
2190.00000,56.57880
2192.00000,88.36409
2194.00000,58.23813
2196.00000,66.33450
2198.00000,72.68889
2200.00000,49.80755
2202.00000,70.83969
2204.00000,78.71677
2206.00000,54.93392
2208.00000,41.04472
2210.00000,57.35681
2212.00000,48.27105
2214.00000,51.28925
2216.00000,47.57819
2218.00000,24.47981
2220.00000,34.26527
2222.00000,62.51131
2224.00000,58.40607
2226.00000,37.42604
2228.00000,44.37172
2230.00000,35.12447
2232.00000,36.44891
2234.00000,57.56794
2236.00000,65.53991
2238.00000,39.93906
2240.00000,43.46191
2242.00000,59.98178
2244.00000,52.43461
2246.00000,41.24123
2248.00000,75.07001
2250.00000,61.91900
2252.00000,37.00477
2254.00000,76.22343
2256.00000,80.64257
2258.00000,51.94142
2260.00000,73.65569
2262.00000,110.20517
2264.00000,43.40249
2266.00000,40.60640
2268.00000,90.94396
2270.00000,94.54053
2272.00000,48.58223
2274.00000,73.25784
2276.00000,71.78918
2278.00000,50.34900
2280.00000,66.87366
2282.00000,82.83405
2284.00000,79.53088
2286.00000,87.79099
2288.00000,84.25116
2290.00000,45.03859
2292.00000,86.98651
2294.00000,91.76786
2296.00000,58.04145
2298.00000,61.44376
2300.00000,57.67201
2302.00000,78.83719
2304.00000,87.82035
2306.00000,70.89155
2308.00000,78.94212
2310.00000,90.66998
2312.00000,70.78257
2314.00000,68.32478
2316.00000,106.80189
2318.00000,72.14664
2320.00000,66.24841
2322.00000,93.96389
2324.00000,93.57030
2326.00000,73.29556
2328.00000,82.33260
2330.00000,107.57034
2332.00000,105.92120
2334.00000,77.62041
2336.00000,85.60836
2338.00000,73.15556
2340.00000,57.38095
2342.00000,71.06374
2344.00000,63.29169
2346.00000,64.75324
2348.00000,83.47749
2350.00000,94.77883
2352.00000,80.29149
2354.00000,62.38238
2356.00000,53.69408
2358.00000,67.99190
2360.00000,97.98997
2362.00000,96.48051
2364.00000,56.44154
2366.00000,64.04716
2368.00000,101.69339
2370.00000,61.62579
2372.00000,97.10568
2374.00000,113.00758
2376.00000,83.27972
2378.00000,91.36649
2380.00000,84.69431
2382.00000,94.18803
2384.00000,108.91187
2386.00000,105.76857
2388.00000,105.57769
2390.00000,98.64386
2392.00000,117.39536
2394.00000,135.19225
2396.00000,109.72347
2398.00000,135.38397
2400.00000,144.34172
2402.00000,108.05465
2404.00000,95.75253
2406.00000,140.12112
2408.00000,71.39592
2410.00000,76.94452
2412.00000,156.08188
2414.00000,43.62894
2416.00000,42.33195
2418.00000,107.46187
2420.00000,102.08327
2422.00000,59.54164
2424.00000,111.40858
2426.00000,94.24066
2428.00000,72.83450
2430.00000,115.27509
2432.00000,94.12624
2434.00000,97.32008
2436.00000,113.30408
2438.00000,100.55187
2440.00000,65.55614
2442.00000,38.24348
2444.00000,47.00354
2446.00000,67.95959
2448.00000,60.40531
2450.00000,36.83868
2452.00000,69.36720
2454.00000,86.17262
2456.00000,60.49062
2458.00000,61.63537
2460.00000,56.59684
2462.00000,92.06023
2464.00000,103.71393
2466.00000,48.91917
2468.00000,71.33230
2470.00000,66.51975
2472.00000,49.12587
2474.00000,59.00025
2476.00000,58.80784
2478.00000,95.72057
2480.00000,102.43761
2482.00000,103.60863
2484.00000,137.32205
2486.00000,63.90248
2488.00000,61.14679
2490.00000,99.81284
2492.00000,78.95616
2494.00000,74.18852
2496.00000,74.71206
2498.00000,66.09652
2500.00000,69.62995
2502.00000,90.13121
2504.00000,59.58812
2506.00000,60.99403
2508.00000,79.61382
2510.00000,55.76982
2512.00000,46.83461
2514.00000,81.54623
2516.00000,106.02285
2518.00000,94.57343
2520.00000,82.26198
2522.00000,59.27821
2524.00000,86.35510
2526.00000,104.75555
2528.00000,54.08016
2530.00000,73.06951
2532.00000,107.72942
2534.00000,82.02409
2536.00000,51.81087
2538.00000,111.77602
2540.00000,80.60650
2542.00000,66.24174
2544.00000,107.10018
2546.00000,87.02854
2548.00000,53.63993
2550.00000,98.60055
2552.00000,140.64563
2554.00000,113.54916
2556.00000,123.01102
2558.00000,107.61988
2560.00000,87.45670
2562.00000,92.23927
2564.00000,95.93556
2566.00000,90.12851
2568.00000,82.61285
2570.00000,61.70667
2572.00000,50.57711
2574.00000,104.76812
2576.00000,58.03002
2578.00000,44.70876
2580.00000,115.81865
2582.00000,69.39582
2584.00000,44.77815
2586.00000,112.57317
2588.00000,135.96001
2590.00000,35.81752
2592.00000,50.81525
2594.00000,89.62955
2596.00000,78.13013
2598.00000,71.98045
2600.00000,127.07387
2602.00000,126.42626
2604.00000,102.58871
2606.00000,123.98713
2608.00000,153.54509
2610.00000,97.62862
2612.00000,113.26939
2614.00000,146.59641
2616.00000,94.16054
2618.00000,98.22790
2620.00000,112.36478
2622.00000,100.90212
2624.00000,80.97643
2626.00000,87.76675
2628.00000,129.96330
2630.00000,108.59818
2632.00000,68.63578
2634.00000,109.41629
2636.00000,136.94273
2638.00000,92.58267
2640.00000,76.78818
2642.00000,112.64320
2644.00000,74.65437
2646.00000,57.79601
2648.00000,75.26960
2650.00000,98.52858
2652.00000,99.88551
2654.00000,50.79739
2656.00000,67.26417
2658.00000,94.64283
2660.00000,77.90241
2662.00000,122.21191
2664.00000,88.51047
2666.00000,56.87702
2668.00000,81.20823
2670.00000,73.62571
2672.00000,71.38738
2674.00000,134.11482
2676.00000,138.24088
2678.00000,47.28073
2680.00000,112.44735
2682.00000,118.02763
2684.00000,53.39676
2686.00000,46.52817
2688.00000,99.35198
2690.00000,102.13410
2692.00000,102.86813
2694.00000,95.10856
2696.00000,52.94610
2698.00000,89.37048
2700.00000,64.10661
2702.00000,72.28116
2704.00000,153.80327
2706.00000,91.87290
2708.00000,62.86072
2710.00000,120.23750
2712.00000,122.67361
2714.00000,35.72018
2716.00000,159.76381
2718.00000,171.82976
2720.00000,92.88203
2722.00000,135.67281
2724.00000,140.19504
2726.00000,86.11169
2728.00000,119.86373
2730.00000,210.27318
2732.00000,169.57451
2734.00000,137.72440
2736.00000,128.21434
2738.00000,120.54600
2740.00000,125.69404
2742.00000,140.94461
2744.00000,128.17732
2746.00000,100.84366
2748.00000,104.44764
2750.00000,134.99274
2752.00000,90.79992
2754.00000,33.16026
2756.00000,47.34893
2758.00000,96.32131
2760.00000,65.96652
2762.00000,108.12920
2764.00000,102.82590
2766.00000,1.17608
2768.00000,97.43013
2770.00000,164.52827
2772.00000,112.51254
2774.00000,97.78880
2776.00000,185.39699
2778.00000,60.53690
2780.00000,127.37801
2782.00000,220.44547
2784.00000,43.73192
2786.00000,101.60411
2788.00000,205.88322
2790.00000,183.90994
2792.00000,135.89256
2794.00000,191.65166
2796.00000,126.53878
2798.00000,115.66012
2800.00000,182.38574
2802.00000,157.48494
2804.00000,127.73079
2806.00000,181.06250
2808.00000,202.21214
2810.00000,153.38538
2812.00000,201.31195
2814.00000,235.47253
2816.00000,225.41768
2818.00000,215.46338
2820.00000,239.52467
2822.00000,282.07495
2824.00000,273.05371
2826.00000,281.71576
2828.00000,331.86856
2830.00000,276.39407
2832.00000,288.31137
2834.00000,345.92969
2836.00000,363.23526
2838.00000,385.95740
2840.00000,496.72809
2842.00000,574.98859
2844.00000,561.79675
2846.00000,567.85095
2848.00000,702.85474
2850.00000,749.26501
2852.00000,772.68384
2854.00000,861.16760
2856.00000,882.75842
2858.00000,893.78021
2860.00000,952.28278
2862.00000,997.11340
2864.00000,983.00293
2866.00000,1045.24817
2868.00000,1039.62512
2870.00000,1012.73553
2872.00000,1035.55640
2874.00000,985.05853
2876.00000,987.65894
2878.00000,998.23309
2880.00000,985.08600
2882.00000,1006.66730
2884.00000,1008.14154
2886.00000,1050.76599
2888.00000,1078.63757
2890.00000,1036.93250
2892.00000,1061.70654
2894.00000,1123.84094
2896.00000,1176.13159
2898.00000,1185.93579
2900.00000,1165.95483
2902.00000,1223.48083
2904.00000,1216.21924
2906.00000,1166.12805
2908.00000,1206.65527
2910.00000,1226.60278
2912.00000,1254.10522
2914.00000,1271.36401
2916.00000,1249.44714
2918.00000,1233.29199
2920.00000,1249.06372
2922.00000,1219.12915
2924.00000,1176.54871
2926.00000,1181.54626
2928.00000,1081.23059
2930.00000,1162.44983
2932.00000,1192.40051
2934.00000,986.89038
2936.00000,1038.59607
2938.00000,1037.09851
2940.00000,906.60626
2942.00000,819.54547
2944.00000,844.72839
2946.00000,798.69531
2948.00000,657.05426
2950.00000,589.21069
2952.00000,649.03009
2954.00000,582.83514
2956.00000,486.05902
2958.00000,501.77667
2960.00000,542.99988
2962.00000,437.34183
2964.00000,446.17233
2966.00000,380.80502
2968.00000,295.80371
2970.00000,391.03198
2972.00000,311.58417
2974.00000,266.67017
2976.00000,295.91574
2978.00000,236.16461
2980.00000,130.12363
2982.00000,297.32693
2984.00000,229.63608
2986.00000,-0.32951
2988.00000,211.44696
2990.00000,174.17477
2992.00000,5.75174
2994.00000,43.78796
2996.00000,186.18076
2998.00000,31.42800
3000.00000,56.13095
3002.00000,132.47813
3004.00000,71.17432
3006.00000,75.24654
3008.00000,11.88656
3010.00000,41.73491
3012.00000,120.11864
3014.00000,94.20719
3016.00000,153.46048
3018.00000,160.95712
3020.00000,132.67773
3022.00000,185.93013
3024.00000,285.16684
3026.00000,281.53613
3028.00000,351.50717
3030.00000,433.49365
3032.00000,378.24884
3034.00000,590.61279
3036.00000,617.35919
3038.00000,568.01294
3040.00000,739.74054
3042.00000,795.43158
3044.00000,844.59845
3046.00000,878.00024
3048.00000,910.64526
3050.00000,1038.63428
3052.00000,1124.51318
3054.00000,1144.55823
3056.00000,1138.65002
3058.00000,1155.01013
3060.00000,1208.56091
3062.00000,1152.86597
3064.00000,1027.22424
3066.00000,943.32434
3068.00000,889.71307
3070.00000,787.64935
3072.00000,703.87146
3074.00000,664.97430
3076.00000,586.51367
3078.00000,418.50537
3080.00000,315.63089
3082.00000,365.81891
3084.00000,410.02927
3086.00000,259.37006
3088.00000,311.36823
3090.00000,256.57266
3092.00000,118.12550
3094.00000,279.12622
3096.00000,169.23070
3098.00000,80.97388
3100.00000,136.82179
3102.00000,140.40750
3104.00000,106.91002
3106.00000,123.06347
3108.00000,183.76035
3110.00000,179.83212
3112.00000,98.28288
3114.00000,230.32054
3116.00000,240.12134
3118.00000,145.35162
3120.00000,201.91684
3122.00000,133.51721
3124.00000,176.67503
3126.00000,202.65561
3128.00000,148.92625
3130.00000,275.97623
3132.00000,134.85385
3134.00000,120.43920
3136.00000,207.18756
3138.00000,5.66167
3140.00000,144.64546
3142.00000,243.50842
3144.00000,112.38786
3146.00000,-0.68366
3148.00000,66.42705
3150.00000,177.27077
3152.00000,303.51065
3154.00000,278.44592
3156.00000,44.55317
3158.00000,275.97086
3160.00000,324.30020
3162.00000,123.57928
3164.00000,194.32132
3166.00000,308.95929
3168.00000,98.54301
3170.00000,67.21007
3172.00000,319.72220
3174.00000,192.11389
3176.00000,263.84442
3178.00000,213.54848
3180.00000,49.02625
3182.00000,178.38966
3184.00000,240.85005
3186.00000,208.77000
3188.00000,262.35587
3190.00000,312.15698
3192.00000,93.45447
3194.00000,215.80539
3196.00000,310.76892
3198.00000,171.94966
3200.00000,173.13727
