300.00000,68.70102
302.00000,62.68431
304.00000,43.88493
306.00000,43.75799
308.00000,62.03600
310.00000,77.70222
312.00000,77.84770
314.00000,72.95484
316.00000,68.98572
318.00000,67.02008
320.00000,67.57215
322.00000,80.22524
324.00000,139.28021
326.00000,223.42140
328.00000,286.90555
330.00000,320.09698
332.00000,357.28543
334.00000,352.90207
336.00000,297.46851
338.00000,242.84387
340.00000,230.16489
342.00000,233.99042
344.00000,234.38364
346.00000,231.86197
348.00000,226.31297
350.00000,199.58569
352.00000,174.19221
354.00000,176.02576
356.00000,189.53218
358.00000,167.34172
360.00000,135.55180
362.00000,127.46278
364.00000,133.08820
366.00000,122.29058
368.00000,113.80522
370.00000,103.92663
372.00000,83.65455
374.00000,65.53307
376.00000,78.69670
378.00000,109.93754
380.00000,121.54124
382.00000,108.95577
384.00000,101.45178
386.00000,101.52905
388.00000,110.62360
390.00000,127.18546
392.00000,141.31830
394.00000,142.83376
396.00000,148.91983
398.00000,175.04092
400.00000,216.86557
402.00000,258.11432
404.00000,293.99933
406.00000,321.12955
408.00000,344.32141
410.00000,387.84280
412.00000,480.17993
414.00000,593.81604
416.00000,691.25366
418.00000,764.15240
420.00000,843.64862
422.00000,967.76306
424.00000,1097.05811
426.00000,1213.50378
428.00000,1340.33472
430.00000,1493.75427
432.00000,1638.76221
434.00000,1774.68237
436.00000,1913.75000
438.00000,2050.33203
440.00000,2164.15845
442.00000,2250.80615
444.00000,2326.79907
446.00000,2379.55176
448.00000,2362.31934
450.00000,2302.49634
452.00000,2202.57446
454.00000,2067.17603
456.00000,1909.42908
458.00000,1719.39172
460.00000,1514.59912
462.00000,1322.36707
464.00000,1159.84436
466.00000,1017.59753
468.00000,857.72626
470.00000,707.80951
472.00000,585.33264
474.00000,481.17523
476.00000,407.84470
478.00000,328.46140
480.00000,247.17152
482.00000,199.17987
484.00000,184.49620
486.00000,139.74646
488.00000,81.84430
490.00000,45.40272
492.00000,35.06628
494.00000,43.18432
496.00000,62.43742
498.00000,58.51389
500.00000,25.99260
502.00000,12.40313
504.00000,28.44605
506.00000,52.39462
508.00000,59.24115
510.00000,42.95167
512.00000,23.03451
514.00000,26.57462
516.00000,38.01490
518.00000,57.31577
520.00000,124.01369
522.00000,223.62538
524.00000,332.36371
526.00000,393.09796
528.00000,355.16824
530.00000,253.34900
532.00000,177.36298
534.00000,143.37601
536.00000,127.26508
538.00000,123.94904
540.00000,130.82620
542.00000,141.17903
544.00000,147.79179
546.00000,138.38853
548.00000,104.94411
550.00000,101.65360
552.00000,141.00310
554.00000,176.25446
556.00000,169.21281
558.00000,175.40431
560.00000,193.18248
562.00000,221.99300
564.00000,266.17996
566.00000,297.99570
568.00000,324.90240
570.00000,370.51630
572.00000,429.56436
574.00000,472.19400
576.00000,509.99890
578.00000,561.35577
580.00000,625.89258
582.00000,689.95990
584.00000,752.84418
586.00000,842.37469
588.00000,933.59485
590.00000,1010.52600
592.00000,1098.86035
594.00000,1195.70117
596.00000,1296.09741
598.00000,1411.13000
600.00000,1538.71960
602.00000,1641.06653
604.00000,1713.79993
606.00000,1781.46912
608.00000,1842.80408
610.00000,1860.92139
612.00000,1829.65308
614.00000,1804.86035
616.00000,1761.52441
618.00000,1660.21887
620.00000,1555.15369
622.00000,1425.70300
624.00000,1272.79297
626.00000,1120.49036
628.00000,981.81500
630.00000,846.35217
632.00000,720.62225
634.00000,622.85815
636.00000,553.53552
638.00000,481.62918
640.00000,392.60126
642.00000,327.46509
644.00000,298.87531
646.00000,271.13516
648.00000,241.34193
650.00000,205.96062
652.00000,174.33429
654.00000,157.96730
656.00000,150.49100
658.00000,137.19763
660.00000,119.48565
662.00000,96.36390
664.00000,74.35587
666.00000,92.03090
668.00000,111.89553
670.00000,110.96216
672.00000,111.72152
674.00000,138.67432
676.00000,157.07635
678.00000,172.39888
680.00000,177.83069
682.00000,151.59711
684.00000,128.76140
686.00000,119.81298
688.00000,100.18191
690.00000,66.68346
692.00000,60.13260
694.00000,70.21095
696.00000,73.66129
698.00000,70.10349
700.00000,72.77318
702.00000,74.52670
704.00000,81.15066
706.00000,81.17508
708.00000,69.72776
710.00000,67.95911
712.00000,73.99017
714.00000,92.29292
716.00000,108.61900
718.00000,104.71820
720.00000,102.88334
722.00000,108.19217
724.00000,123.62486
726.00000,135.00159
728.00000,116.97292
730.00000,100.67832
732.00000,99.61969
734.00000,95.38187
736.00000,77.83578
738.00000,83.30228
740.00000,110.98496
742.00000,140.24312
744.00000,150.21478
746.00000,134.46304
748.00000,111.13750
750.00000,86.61363
752.00000,68.75108
754.00000,60.26627
756.00000,45.35404
758.00000,48.87505
760.00000,59.30310
762.00000,60.27785
764.00000,63.74510
766.00000,55.81418
768.00000,49.36378
770.00000,51.93159
772.00000,56.77966
774.00000,65.51573
776.00000,78.49728
778.00000,95.99331
780.00000,110.19657
782.00000,108.30576
784.00000,96.91411
786.00000,90.51415
788.00000,97.25361
790.00000,112.35062
792.00000,119.74329
794.00000,102.81368
796.00000,83.15858
798.00000,83.94566
800.00000,98.55935
802.00000,115.59977
804.00000,104.52750
806.00000,91.72288
808.00000,115.05001
810.00000,131.35500
812.00000,125.90576
814.00000,108.03252
816.00000,97.64336
818.00000,101.91841
820.00000,94.45490
822.00000,102.36532
824.00000,100.81634
826.00000,71.45094
828.00000,93.22227
830.00000,101.88806
832.00000,95.30420
834.00000,113.51210
836.00000,143.62320
838.00000,120.62425
840.00000,113.87649
842.00000,131.28355
844.00000,122.89867
846.00000,113.81322
848.00000,115.06268
850.00000,114.85161
852.00000,96.13452
854.00000,68.09106
856.00000,78.18204
858.00000,86.23925
860.00000,74.69211
862.00000,62.72682
864.00000,53.83737
866.00000,70.43356
868.00000,76.12697
870.00000,61.72901
872.00000,65.41538
874.00000,58.73057
876.00000,37.77998
878.00000,30.11646
880.00000,49.88105
882.00000,67.76925
884.00000,69.32991
886.00000,55.98554
888.00000,49.40822
890.00000,66.10894
892.00000,72.22310
894.00000,48.92854
896.00000,45.22258
898.00000,77.07613
900.00000,67.30001
902.00000,71.34764
904.00000,74.39583
906.00000,64.55500
908.00000,69.65451
910.00000,59.90444
912.00000,47.90868
914.00000,60.83266
916.00000,77.39859
918.00000,44.17019
920.00000,39.91452
922.00000,48.76706
924.00000,35.16896
926.00000,22.58119
928.00000,40.32976
930.00000,59.02400
932.00000,56.07591
934.00000,36.77672
936.00000,18.09541
938.00000,16.26984
940.00000,19.10443
942.00000,13.89094
944.00000,12.39209
946.00000,34.46829
948.00000,33.71106
950.00000,11.20305
952.00000,0.35492
954.00000,5.16940
956.00000,29.04082
958.00000,52.07052
960.00000,62.58300
962.00000,62.33170
964.00000,47.34283
966.00000,63.66291
968.00000,73.91192
970.00000,49.57551
972.00000,54.07433
974.00000,58.82627
976.00000,48.36899
978.00000,43.03866
980.00000,57.70000
982.00000,62.18089
984.00000,66.10886
986.00000,81.01110
988.00000,104.20837
990.00000,132.45213
992.00000,182.66988
994.00000,260.53033
996.00000,371.76620
998.00000,509.70999
1000.00000,621.39276
1002.00000,634.86212
1004.00000,539.63531
1006.00000,387.54269
1008.00000,245.59665
1010.00000,147.77696
1012.00000,95.34887
1014.00000,77.70524
1016.00000,80.61141
1018.00000,85.75327
1020.00000,92.13728
1022.00000,109.28632
1024.00000,146.23802
1026.00000,196.29814
1028.00000,227.25391
1030.00000,245.70998
1032.00000,250.25787
1034.00000,228.39511
1036.00000,204.03366
1038.00000,218.52672
1040.00000,193.80124
1042.00000,136.97366
1044.00000,175.80394
1046.00000,166.80505
1048.00000,147.15714
1050.00000,151.68828
1052.00000,150.05975
1054.00000,164.56570
1056.00000,174.58566
1058.00000,181.13474
1060.00000,197.74844
1062.00000,214.38609
1064.00000,202.54324
1066.00000,197.51691
1068.00000,200.72780
1070.00000,187.62697
1072.00000,184.66782
1074.00000,189.69409
1076.00000,196.20749
1078.00000,193.69643
1080.00000,187.63130
1082.00000,234.54370
1084.00000,271.03592
1086.00000,266.27527
1088.00000,245.42126
1090.00000,203.01184
1092.00000,160.62723
1094.00000,135.98921
1096.00000,126.81970
1098.00000,120.28329
1100.00000,119.23263
1102.00000,135.33690
1104.00000,140.12256
1106.00000,123.72297
1108.00000,141.77518
1110.00000,126.76868
1112.00000,113.01801
1114.00000,125.06284
1116.00000,105.95320
1118.00000,77.22973
1120.00000,81.20445
1122.00000,97.41656
1124.00000,92.20690
1126.00000,95.33733
1128.00000,100.08466
1130.00000,100.94516
1132.00000,96.29349
1134.00000,87.86246
1136.00000,91.77061
1138.00000,102.52809
1140.00000,128.32521
1142.00000,151.82568
1144.00000,118.87039
1146.00000,111.18347
1148.00000,121.27502
1150.00000,142.50105
1152.00000,205.90315
1154.00000,245.61041
1156.00000,266.00766
1158.00000,282.47955
1160.00000,277.98413
1162.00000,236.11906
1164.00000,226.29318
1166.00000,224.28824
1168.00000,215.26485
1170.00000,218.95020
1172.00000,171.95949
1174.00000,169.55238
1176.00000,186.51337
1178.00000,169.11322
1180.00000,201.78899
1182.00000,211.34558
1184.00000,209.48430
1186.00000,205.73251
1188.00000,171.32118
1190.00000,157.30075
1192.00000,164.83319
1194.00000,170.67047
1196.00000,168.86642
1198.00000,177.56503
1200.00000,193.27969
1202.00000,205.19348
1204.00000,189.36481
1206.00000,152.53610
1208.00000,168.65022
1210.00000,148.60999
1212.00000,110.33403
1214.00000,110.65734
1216.00000,100.10080
1218.00000,105.53191
1220.00000,110.99284
1222.00000,137.39650
1224.00000,217.31532
1226.00000,268.86591
1228.00000,306.73077
1230.00000,334.86438
1232.00000,326.81424
1234.00000,276.88733
1236.00000,222.96495
1238.00000,195.64641
1240.00000,193.09496
1242.00000,191.82428
1244.00000,179.38925
1246.00000,162.93124
1248.00000,171.57796
1250.00000,178.85129
1252.00000,121.32432
1254.00000,114.09202
1256.00000,148.68877
1258.00000,171.73900
1260.00000,165.04572
1262.00000,134.57588
1264.00000,167.36551
1266.00000,191.97568
1268.00000,170.26013
1270.00000,218.74794
1272.00000,244.16077
1274.00000,279.41177
1276.00000,335.81265
1278.00000,362.76544
1280.00000,381.46268
1282.00000,384.19720
1284.00000,351.27237
1286.00000,294.26697
1288.00000,251.01903
1290.00000,210.25229
1292.00000,183.39508
1294.00000,177.30679
1296.00000,171.49599
1298.00000,144.39131
1300.00000,142.40488
1302.00000,147.28081
1304.00000,153.86406
1306.00000,190.30930
1308.00000,143.11749
1310.00000,137.84674
1312.00000,187.96509
1314.00000,178.79417
1316.00000,160.43645
1318.00000,159.16089
1320.00000,168.73914
1322.00000,184.61504
1324.00000,205.08495
1326.00000,195.44380
1328.00000,204.01239
1330.00000,224.93661
1332.00000,205.43695
1334.00000,172.47586
1336.00000,180.70850
1338.00000,192.96494
1340.00000,185.66853
1342.00000,201.12949
1344.00000,206.39549
1346.00000,220.79233
1348.00000,269.89392
1350.00000,342.97104
1352.00000,411.05103
1354.00000,491.63626
1356.00000,528.23737
1358.00000,511.64343
1360.00000,512.11584
1362.00000,477.08228
1364.00000,388.10156
1366.00000,333.89230
1368.00000,336.71277
1370.00000,254.06029
1372.00000,269.21140
1374.00000,338.23636
1376.00000,334.39038
1378.00000,281.62982
1380.00000,245.56485
1382.00000,234.83783
1384.00000,220.83098
1386.00000,196.70940
1388.00000,210.20442
1390.00000,283.67935
1392.00000,273.62277
1394.00000,198.29639
1396.00000,209.85475
1398.00000,96.74622
1400.00000,57.49346
1402.00000,97.89777
1404.00000,57.33648
1406.00000,13.41444
1408.00000,5.14300
1410.00000,22.53284
1412.00000,36.66097
1414.00000,26.05320
1416.00000,0.43823
1418.00000,32.59279
1420.00000,89.97462
1422.00000,87.92860
1424.00000,47.54676
1426.00000,56.16522
1428.00000,82.37643
1430.00000,86.74462
1432.00000,100.86933
1434.00000,137.56361
1436.00000,151.54889
1438.00000,162.88377
1440.00000,197.76721
1442.00000,214.72394
1444.00000,273.69864
1446.00000,321.47455
1448.00000,318.68735
1450.00000,310.37558
1452.00000,309.03659
1454.00000,329.96545
1456.00000,350.63785
1458.00000,345.65918
1460.00000,329.34244
1462.00000,301.51703
1464.00000,301.06314
1466.00000,330.23181
1468.00000,346.83313
1470.00000,354.63290
1472.00000,357.02771
1474.00000,357.88678
1476.00000,366.21179
1478.00000,392.18777
1480.00000,431.98312
1482.00000,457.48425
1484.00000,470.55359
1486.00000,470.35690
1488.00000,391.93051
1490.00000,358.22720
1492.00000,343.95200
1494.00000,283.16379
1496.00000,250.90916
1498.00000,215.34767
1500.00000,209.76839
1502.00000,203.03285
1504.00000,133.81581
1506.00000,104.67273
1508.00000,121.55733
1510.00000,96.44810
1512.00000,31.98703
1514.00000,51.77722
1516.00000,64.60715
1518.00000,59.12658
1520.00000,63.19992
1522.00000,71.84121
1524.00000,63.59067
1526.00000,42.50911
1528.00000,37.41782
1530.00000,48.83223
1532.00000,40.61529
1534.00000,37.08958
1536.00000,47.36459
1538.00000,52.76155
1540.00000,41.28044
1542.00000,44.59004
1544.00000,90.21967
1546.00000,131.79918
1548.00000,139.49863
1550.00000,160.80116
1552.00000,197.70543
1554.00000,215.97371
1556.00000,204.94099
1558.00000,187.71834
1560.00000,185.06949
1562.00000,205.56647
1564.00000,193.01984
1566.00000,192.55232
1568.00000,306.38846
1570.00000,298.10052
1572.00000,377.58310
1574.00000,451.35858
1576.00000,369.63681
1578.00000,611.04694
1580.00000,627.92169
1582.00000,536.84833
1584.00000,567.10675
1586.00000,443.67789
1588.00000,410.71143
1590.00000,397.63513
1592.00000,358.26364
1594.00000,345.79303
1596.00000,288.27234
1598.00000,307.35760
1600.00000,355.29349
1602.00000,353.93240
1604.00000,351.43903
1606.00000,337.01791
1608.00000,314.31104
1610.00000,280.33591
1612.00000,221.39503
1614.00000,149.82933
1616.00000,135.10445
1618.00000,141.19981
1620.00000,117.57842
1622.00000,101.05138
1624.00000,131.62460
1626.00000,77.40928
1628.00000,36.73722
1630.00000,102.41384
1632.00000,30.38082
1634.00000,133.72044
1636.00000,138.64716
1638.00000,10.42160
1640.00000,157.04123
1642.00000,53.41948
1644.00000,60.32544
1646.00000,138.95747
1648.00000,22.12878
1650.00000,102.26756
1652.00000,98.37515
1654.00000,48.68883
1656.00000,90.91177
1658.00000,136.10718
1660.00000,141.76761
1662.00000,99.11281
1664.00000,97.27200
1666.00000,152.94756
1668.00000,111.03299
1670.00000,110.02097
1672.00000,136.59906
1674.00000,127.11834
1676.00000,115.47721
1678.00000,127.23471
1680.00000,118.06191
1682.00000,115.12731
1684.00000,125.53062
1686.00000,66.18063
1688.00000,105.70733
1690.00000,101.26853
1692.00000,40.30742
1694.00000,114.17451
1696.00000,112.72050
1698.00000,121.49223
1700.00000,129.27266
1702.00000,86.13668
1704.00000,116.95438
1706.00000,132.24364
1708.00000,121.01641
1710.00000,87.84879
1712.00000,44.45818
1714.00000,108.82166
1716.00000,74.27891
1718.00000,48.46560
1720.00000,147.01108
1722.00000,95.17206
1724.00000,83.50981
1726.00000,115.65376
1728.00000,106.64680
1730.00000,85.44139
1732.00000,123.20307
1734.00000,93.66523
1736.00000,51.07947
1738.00000,108.30453
1740.00000,160.05287
1742.00000,95.05991
1744.00000,120.58421
1746.00000,178.06129
1748.00000,63.81581
1750.00000,151.60934
1752.00000,172.94048
1754.00000,113.74607
1756.00000,140.24573
1758.00000,152.99069
1760.00000,137.28574
1762.00000,146.27065
1764.00000,200.26227
1766.00000,238.80171
1768.00000,189.82578
1770.00000,173.54663
1772.00000,198.62270
1774.00000,196.71948
1776.00000,171.42451
1778.00000,134.75005
1780.00000,188.05968
1782.00000,237.54843
1784.00000,166.45419
1786.00000,232.48235
1788.00000,239.83409
1790.00000,197.28831
1792.00000,239.02637
1794.00000,274.86139
1796.00000,170.67613
1798.00000,232.32857
1800.00000,303.09329
1802.00000,98.30041
1804.00000,236.17618
1806.00000,286.96097
1808.00000,209.20149
1810.00000,232.90060
1812.00000,273.07245
1814.00000,328.73645
1816.00000,341.00195
1818.00000,309.88278
1820.00000,324.68863
1822.00000,405.33011
1824.00000,325.83789
1826.00000,321.11105
1828.00000,455.26352
1830.00000,338.97980
1832.00000,330.84766
1834.00000,355.55753
1836.00000,361.72449
1838.00000,431.42719
1840.00000,437.54926
1842.00000,528.62018
1844.00000,534.17651
1846.00000,456.00232
1848.00000,608.15601
1850.00000,586.35095
1852.00000,550.30463
1854.00000,603.73871
1856.00000,625.80292
1858.00000,698.84644
1860.00000,812.71191
1862.00000,698.04254
1864.00000,386.55276
1866.00000,289.53165
1868.00000,257.13486
1870.00000,206.64613
1872.00000,100.32909
1874.00000,-0.07599
1876.00000,87.75110
1878.00000,80.95259
1880.00000,19.36173
1882.00000,40.17690
1884.00000,53.11805
1886.00000,14.97441
1888.00000,12.28459
1890.00000,48.08839
1892.00000,59.92688
1894.00000,64.04154
1896.00000,29.79031
1898.00000,100.26542
1900.00000,172.76242
1902.00000,9.93115
1904.00000,97.06560
1906.00000,193.95763
1908.00000,133.13551
1910.00000,102.37033
1912.00000,191.31107
1914.00000,164.27394
1916.00000,123.39951
1918.00000,160.66690
1920.00000,155.50475
1922.00000,212.31828
1924.00000,208.79518
1926.00000,144.36830
1928.00000,140.24823
1930.00000,182.11949
1932.00000,197.69347
1934.00000,158.54967
1936.00000,109.23497
1938.00000,116.41673
1940.00000,161.22879
1942.00000,134.23145
1944.00000,112.57089
1946.00000,144.01088
1948.00000,59.58047
1950.00000,139.51141
1952.00000,191.03625
1954.00000,89.11324
1956.00000,65.97465
1958.00000,83.36992
1960.00000,36.89742
1962.00000,5.17817
1964.00000,41.39433
1966.00000,2.00773
1968.00000,61.56239
1970.00000,69.28744
1972.00000,5.92446
1974.00000,61.81577
1976.00000,25.60193
1978.00000,-10.48252
1980.00000,59.27882
1982.00000,129.53589
1984.00000,37.38383
1986.00000,49.00048
1988.00000,83.39790
1990.00000,53.16173
1992.00000,54.08152
1994.00000,35.25967
1996.00000,69.35741
1998.00000,75.76931
2000.00000,162.26305
2002.00000,164.68964
2004.00000,153.66052
2006.00000,159.26437
2008.00000,188.09355
2010.00000,194.39453
2012.00000,198.52525
2014.00000,213.11964
2016.00000,216.20853
2018.00000,212.02657
2020.00000,223.29564
2022.00000,243.12988
2024.00000,250.13603
2026.00000,246.87692
2028.00000,253.61993
2030.00000,250.85371
2032.00000,239.35625
2034.00000,251.69560
2036.00000,272.36142
2038.00000,277.24445
2040.00000,270.80246
2042.00000,269.44739
2044.00000,269.95413
2046.00000,277.68613
2048.00000,284.10147
2050.00000,280.24609
2052.00000,268.98804
2054.00000,253.26884
2056.00000,257.23810
2058.00000,269.57895
2060.00000,264.22195
2062.00000,264.78476
2064.00000,260.20505
2066.00000,253.89569
2068.00000,262.59052
2070.00000,280.16745
2072.00000,264.21033
2074.00000,261.59637
2076.00000,286.97076
2078.00000,283.59866
2080.00000,248.73558
2082.00000,261.57016
2084.00000,280.46832
2086.00000,254.89935
2088.00000,275.65433
2090.00000,290.08264
2092.00000,282.58926
2094.00000,289.75681
2096.00000,315.35168
2098.00000,278.15347
2100.00000,274.14258
2102.00000,291.96432
2104.00000,255.21143
2106.00000,259.31848
2108.00000,297.96793
2110.00000,306.51031
2112.00000,283.50244
2114.00000,291.06937
2116.00000,270.46088
2118.00000,272.88513
2120.00000,292.43411
2122.00000,266.72000
2124.00000,262.00244
2126.00000,269.88327
2128.00000,267.38260
2130.00000,249.24767
2132.00000,226.01724
2134.00000,228.79553
2136.00000,245.64911
2138.00000,242.66264
2140.00000,217.29436
2142.00000,221.92134
2144.00000,234.48936
2146.00000,234.99165
2148.00000,225.68419
2150.00000,210.04442
2152.00000,233.09760
2154.00000,244.46796
2156.00000,215.94183
2158.00000,209.35768
2160.00000,219.93726
2162.00000,237.38757
2164.00000,251.94582
2166.00000,247.18108
2168.00000,215.64032
2170.00000,222.16728
2172.00000,245.15199
2174.00000,235.29839
2176.00000,223.35446
2178.00000,258.02170
2180.00000,269.04932
2182.00000,240.91550
2184.00000,245.34280
2186.00000,264.46872
2188.00000,262.35580
2190.00000,253.91029
2192.00000,262.39868
2194.00000,258.24979
2196.00000,227.98853
2198.00000,245.86893
2200.00000,296.68222
2202.00000,278.34048
2204.00000,278.09915
2206.00000,259.95474
2208.00000,240.69102
2210.00000,264.85611
2212.00000,252.03198
2214.00000,214.28873
2216.00000,223.27576
2218.00000,262.18762
2220.00000,233.38197
2222.00000,226.76872
2224.00000,226.89618
2226.00000,216.93022
2228.00000,224.27045
2230.00000,228.70877
2232.00000,218.31017
2234.00000,224.57423
2236.00000,245.42924
2238.00000,216.79680
2240.00000,194.41426
2242.00000,222.60872
2244.00000,245.24680
2246.00000,207.95398
2248.00000,241.06468
2250.00000,241.55991
2252.00000,209.77448
2254.00000,221.89989
2256.00000,211.78342
2258.00000,212.19286
2260.00000,243.39168
2262.00000,253.76099
2264.00000,198.74432
2266.00000,199.28725
2268.00000,233.04645
2270.00000,242.90038
2272.00000,231.34779
2274.00000,233.87222
2276.00000,245.83511
2278.00000,239.43669
2280.00000,219.46533
2282.00000,231.68408
2284.00000,263.02914
2286.00000,253.69595
2288.00000,225.57234
2290.00000,243.70549
2292.00000,243.69646
2294.00000,232.63043
2296.00000,247.88840
2298.00000,271.69580
2300.00000,242.13361
2302.00000,248.90498
2304.00000,234.94160
2306.00000,200.30458
2308.00000,246.57251
2310.00000,248.02467
2312.00000,224.63559
2314.00000,208.18918
2316.00000,190.39749
2318.00000,192.02240
2320.00000,217.39496
2322.00000,202.38245
2324.00000,162.15968
2326.00000,192.23230
2328.00000,160.90657
2330.00000,125.73061
2332.00000,153.61978
2334.00000,185.33002
2336.00000,145.86746
2338.00000,145.48215
2340.00000,180.44246
2342.00000,162.29787
2344.00000,111.60215
2346.00000,160.61717
2348.00000,186.09160
2350.00000,137.87996
2352.00000,143.07150
2354.00000,155.95833
2356.00000,177.81937
2358.00000,187.87642
2360.00000,164.28925
2362.00000,154.45503
2364.00000,183.12921
2366.00000,177.16544
2368.00000,147.37718
2370.00000,193.04678
2372.00000,184.27495
2374.00000,136.75162
2376.00000,155.90445
2378.00000,231.02486
2380.00000,179.44246
2382.00000,153.99179
2384.00000,165.83189
2386.00000,154.57857
2388.00000,173.00777
2390.00000,171.25641
2392.00000,151.78624
2394.00000,163.27000
2396.00000,193.97723
2398.00000,130.06058
2400.00000,146.35321
2402.00000,202.22983
2404.00000,171.37236
2406.00000,165.53609
2408.00000,169.31395
2410.00000,184.82167
2412.00000,189.49275
2414.00000,149.15768
2416.00000,155.66069
2418.00000,182.54250
2420.00000,163.74522
2422.00000,114.50961
2424.00000,132.54510
2426.00000,144.75665
2428.00000,156.90771
2430.00000,178.96922
2432.00000,159.05881
2434.00000,167.05388
2436.00000,146.53452
2438.00000,132.25313
2440.00000,198.32719
2442.00000,192.90929
2444.00000,136.46144
2446.00000,146.87720
2448.00000,226.82372
2450.00000,225.42911
2452.00000,194.73689
2454.00000,190.02002
2456.00000,201.76009
2458.00000,205.48433
2460.00000,234.23061
2462.00000,229.16255
2464.00000,212.94292
2466.00000,237.59636
2468.00000,245.63696
2470.00000,233.41824
2472.00000,249.44847
2474.00000,273.25845
2476.00000,248.85153
2478.00000,298.44647
2480.00000,263.19394
2482.00000,200.07521
2484.00000,266.65610
2486.00000,234.50005
2488.00000,187.84686
2490.00000,153.06439
2492.00000,83.43942
2494.00000,10.39703
2496.00000,11.00799
2498.00000,69.42582
2500.00000,90.82248
2502.00000,32.96989
2504.00000,21.79295
2506.00000,65.75078
2508.00000,59.84262
2510.00000,0.19796
2512.00000,47.82966
2514.00000,72.13411
2516.00000,42.32840
2518.00000,10.70296
2520.00000,10.08770
2522.00000,56.37636
2524.00000,73.72715
2526.00000,46.54312
2528.00000,53.51490
2530.00000,131.67267
2532.00000,89.27761
2534.00000,68.26727
2536.00000,141.07005
2538.00000,85.61073
2540.00000,82.73385
2542.00000,123.90181
2544.00000,126.05376
2546.00000,100.19028
2548.00000,121.79163
2550.00000,137.84831
2552.00000,150.71054
2554.00000,179.06442
2556.00000,172.58011
2558.00000,144.86717
2560.00000,146.44411
2562.00000,161.89931
2564.00000,147.85480
2566.00000,171.41087
2568.00000,132.62833
2570.00000,108.44713
2572.00000,174.04779
2574.00000,133.77589
2576.00000,117.23047
2578.00000,143.91551
2580.00000,135.65292
2582.00000,89.50969
2584.00000,104.77808
2586.00000,130.28619
2588.00000,108.37029
2590.00000,75.66734
2592.00000,102.19094
2594.00000,112.67975
2596.00000,51.29218
2598.00000,4.93969
2600.00000,91.34495
2602.00000,99.82669
2604.00000,34.45553
2606.00000,55.81765
2608.00000,165.89883
2610.00000,75.79409
2612.00000,47.98526
2614.00000,93.47092
2616.00000,37.92641
2618.00000,-2.51853
2620.00000,107.23985
2622.00000,108.39222
2624.00000,4.99097
2626.00000,110.06532
2628.00000,110.59354
2630.00000,55.88762
2632.00000,60.43427
2634.00000,93.13018
2636.00000,83.59707
2638.00000,88.30157
2640.00000,136.76950
2642.00000,162.50784
2644.00000,108.73415
2646.00000,132.92574
2648.00000,135.34508
2650.00000,102.55425
2652.00000,139.62473
2654.00000,151.45367
2656.00000,121.52225
2658.00000,107.13864
2660.00000,126.58397
2662.00000,120.81516
2664.00000,116.08698
2666.00000,120.66889
2668.00000,150.16426
2670.00000,169.86673
2672.00000,36.97378
2674.00000,83.45139
2676.00000,193.97542
2678.00000,91.87971
2680.00000,61.14622
2682.00000,150.31973
2684.00000,137.84340
2686.00000,47.67849
2688.00000,156.07930
2690.00000,204.57661
2692.00000,115.05008
2694.00000,101.68338
2696.00000,229.96957
2698.00000,126.59453
2700.00000,149.59499
2702.00000,220.39406
2704.00000,129.97557
2706.00000,91.60263
2708.00000,157.11522
2710.00000,162.64417
2712.00000,115.13014
2714.00000,172.05991
2716.00000,224.57515
2718.00000,166.16534
2720.00000,105.94437
2722.00000,148.60820
2724.00000,171.56917
2726.00000,168.69247
2728.00000,206.79114
2730.00000,243.81447
2732.00000,168.87746
2734.00000,99.22211
2736.00000,177.56114
2738.00000,198.06279
2740.00000,55.91969
2742.00000,179.53114
2744.00000,181.82935
2746.00000,61.30452
2748.00000,88.14993
2750.00000,219.96506
2752.00000,101.06969
2754.00000,114.74533
2756.00000,215.49850
2758.00000,38.02113
2760.00000,59.44659
2762.00000,175.24828
2764.00000,111.05202
2766.00000,21.91552
2768.00000,284.88852
2770.00000,151.92027
2772.00000,2.69269
2774.00000,171.11388
2776.00000,222.91106
2778.00000,38.08746
2780.00000,115.10387
2782.00000,257.87973
2784.00000,91.62405
2786.00000,85.07621
2788.00000,223.63126
2790.00000,161.20485
2792.00000,7.78264
2794.00000,186.21797
2796.00000,152.50215
2798.00000,145.80211
2800.00000,229.11678
2802.00000,163.26149
2804.00000,144.94481
2806.00000,227.26410
2808.00000,202.24419
2810.00000,102.59126
2812.00000,244.00514
2814.00000,210.28383
2816.00000,83.02903
2818.00000,104.60015
2820.00000,220.46169
2822.00000,173.96201
2824.00000,187.10136
2826.00000,244.99057
2828.00000,212.98233
2830.00000,225.93782
2832.00000,261.18903
2834.00000,292.56558
2836.00000,304.31619
2838.00000,302.85324
2840.00000,366.98685
2842.00000,448.62613
2844.00000,487.04214
2846.00000,508.33133
2848.00000,586.62201
2850.00000,623.06445
2852.00000,648.04791
2854.00000,710.91425
2856.00000,768.25415
2858.00000,849.53339
2860.00000,843.69135
2862.00000,863.85150
2864.00000,1039.82678
2866.00000,1046.71729
2868.00000,1088.55481
2870.00000,1242.43896
2872.00000,1357.54956
2874.00000,1366.33557
2876.00000,1438.64941
2878.00000,1293.63965
2880.00000,1023.18066
2882.00000,902.52472
2884.00000,255.94994
2886.00000,-77.81270
2888.00000,18.88575
2890.00000,0.04699
2892.00000,-2.79864
2894.00000,1.99893
2896.00000,-1.92838
2898.00000,1.53931
2900.00000,19.52032
2902.00000,30.06114
2904.00000,90.96117
2906.00000,126.78512
2908.00000,99.92866
2910.00000,231.96120
2912.00000,249.54562
2914.00000,229.41199
2916.00000,336.47144
2918.00000,403.77545
2920.00000,365.56909
2922.00000,377.23288
2924.00000,429.21875
2926.00000,394.94406
2928.00000,442.19638
2930.00000,516.08795
2932.00000,488.57028
2934.00000,429.68359
2936.00000,548.40552
2938.00000,531.68469
2940.00000,481.40939
2942.00000,484.18011
2944.00000,404.92157
2946.00000,418.53104
2948.00000,338.97202
2950.00000,330.01917
2952.00000,506.38730
2954.00000,344.64285
2956.00000,332.43140
2958.00000,426.78809
2960.00000,345.02606
2962.00000,250.45956
2964.00000,412.25916
2966.00000,327.34323
2968.00000,166.32043
2970.00000,423.29633
2972.00000,368.28787
2974.00000,149.61696
2976.00000,270.84555
2978.00000,484.14935
2980.00000,62.87050
2982.00000,293.09558
2984.00000,382.17535
2986.00000,96.75301
2988.00000,400.40234
2990.00000,405.70355
2992.00000,167.35074
2994.00000,223.56204
2996.00000,493.46194
2998.00000,221.88358
3000.00000,199.37831
3002.00000,317.29205
3004.00000,304.93686
3006.00000,365.11670
3008.00000,92.11003
3010.00000,65.23099
3012.00000,269.06912
3014.00000,178.91949
3016.00000,111.89162
3018.00000,192.27110
3020.00000,161.07890
3022.00000,-4.24693
3024.00000,95.67595
3026.00000,256.60052
3028.00000,143.77971
3030.00000,104.95101
3032.00000,450.67792
3034.00000,221.57106
3036.00000,280.72992
3038.00000,515.82745
3040.00000,371.84354
3042.00000,397.74789
3044.00000,474.79330
3046.00000,466.70609
3048.00000,510.82889
3050.00000,692.74017
3052.00000,580.01215
3054.00000,621.52527
3056.00000,768.83014
3058.00000,664.97150
3060.00000,673.24146
3062.00000,811.88702
3064.00000,773.66681
3066.00000,596.30408
3068.00000,672.22644
3070.00000,653.11829
3072.00000,517.65918
3074.00000,480.10266
3076.00000,565.85541
3078.00000,477.08221
3080.00000,435.70532
3082.00000,394.72629
3084.00000,302.94049
3086.00000,383.89017
3088.00000,288.33115
3090.00000,193.20219
3092.00000,264.17081
3094.00000,302.36597
3096.00000,206.41313
3098.00000,198.69926
3100.00000,270.47247
3102.00000,296.02527
3104.00000,338.94659
3106.00000,210.41676
3108.00000,183.14316
3110.00000,288.80798
3112.00000,158.57953
3114.00000,123.34837
3116.00000,159.56546
3118.00000,165.76201
3120.00000,124.17046
3122.00000,32.94899
3124.00000,168.42778
3126.00000,338.58978
3128.00000,250.04137
3130.00000,102.06581
3132.00000,338.54147
3134.00000,320.82993
3136.00000,36.33210
3138.00000,170.51524
3140.00000,319.31119
3142.00000,116.46323
3144.00000,55.90921
3146.00000,304.31628
3148.00000,53.45485
3150.00000,129.42018
3152.00000,327.35294
3154.00000,225.40945
3156.00000,87.72375
3158.00000,174.15880
3160.00000,283.66412
3162.00000,214.94142
3164.00000,100.30317
3166.00000,235.33832
3168.00000,266.17905
3170.00000,271.00391
3172.00000,315.91818
3174.00000,178.78346
3176.00000,205.53876
3178.00000,157.28902
3180.00000,30.35176
3182.00000,112.09374
3184.00000,222.87404
3186.00000,246.79393
3188.00000,185.59875
3190.00000,136.01607
3192.00000,207.87137
3194.00000,325.57913
3196.00000,175.07655
3198.00000,132.05267
3200.00000,583.41956
