300.00000,21.91034
302.00000,27.64170
304.00000,45.82347
306.00000,58.87824
308.00000,59.97095
310.00000,56.68102
312.00000,62.35360
314.00000,81.81938
316.00000,91.30782
318.00000,81.72169
320.00000,64.45323
322.00000,49.05354
324.00000,43.78042
326.00000,50.54338
328.00000,49.55143
330.00000,24.89738
332.00000,17.66449
334.00000,21.87441
336.00000,39.59084
338.00000,61.81127
340.00000,44.20133
342.00000,34.99123
344.00000,51.07231
346.00000,85.19146
348.00000,123.22080
350.00000,128.38852
352.00000,146.01913
354.00000,189.53619
356.00000,227.50186
358.00000,245.44344
360.00000,249.18570
362.00000,227.71307
364.00000,183.59724
366.00000,141.18831
368.00000,107.17023
370.00000,82.80732
372.00000,62.31121
374.00000,44.31813
376.00000,39.30127
378.00000,45.47580
380.00000,51.26507
382.00000,51.00368
384.00000,50.89384
386.00000,57.39285
388.00000,61.71815
390.00000,67.47043
392.00000,77.28558
394.00000,80.54458
396.00000,98.27327
398.00000,132.46948
400.00000,174.87483
402.00000,211.18715
404.00000,215.75467
406.00000,220.66101
408.00000,231.97815
410.00000,241.36113
412.00000,265.67447
414.00000,300.79425
416.00000,337.98639
418.00000,375.81171
420.00000,422.67426
422.00000,488.51663
424.00000,563.18311
426.00000,633.98242
428.00000,716.97229
430.00000,840.80127
432.00000,954.13580
434.00000,1048.22998
436.00000,1151.69580
438.00000,1267.54004
440.00000,1342.43628
442.00000,1401.52148
444.00000,1453.51196
446.00000,1479.76196
448.00000,1472.71790
450.00000,1439.13440
452.00000,1376.85413
454.00000,1285.70972
456.00000,1177.42297
458.00000,1069.41956
460.00000,963.18359
462.00000,850.71124
464.00000,735.08362
466.00000,626.46326
468.00000,502.79907
470.00000,400.09543
472.00000,335.96140
474.00000,280.23935
476.00000,212.82224
478.00000,157.42953
480.00000,118.89462
482.00000,91.37608
484.00000,79.01162
486.00000,71.10023
488.00000,64.25147
490.00000,61.00628
492.00000,59.76628
494.00000,53.22107
496.00000,54.34843
498.00000,56.86600
500.00000,48.39123
502.00000,34.52126
504.00000,29.51463
506.00000,37.88367
508.00000,41.52259
510.00000,27.78015
512.00000,21.25877
514.00000,22.19335
516.00000,33.26279
518.00000,45.87678
520.00000,41.53637
522.00000,39.03884
524.00000,33.53180
526.00000,28.39260
528.00000,35.80332
530.00000,43.57077
532.00000,28.05201
534.00000,12.97342
536.00000,16.35631
538.00000,20.87421
540.00000,37.98038
542.00000,42.18327
544.00000,34.47545
546.00000,36.22958
548.00000,38.74331
550.00000,53.19587
552.00000,54.45864
554.00000,36.23944
556.00000,35.45106
558.00000,50.71029
560.00000,70.65167
562.00000,82.71355
564.00000,90.11154
566.00000,114.46772
568.00000,137.69383
570.00000,157.39676
572.00000,181.45181
574.00000,205.95451
576.00000,221.85327
578.00000,262.59091
580.00000,323.04620
582.00000,365.62073
584.00000,389.30920
586.00000,430.36224
588.00000,493.28085
590.00000,569.16840
592.00000,651.97809
594.00000,717.73407
596.00000,778.34473
598.00000,856.79065
600.00000,947.22241
602.00000,1009.72595
604.00000,1043.60278
606.00000,1071.74744
608.00000,1105.13940
610.00000,1131.73376
612.00000,1141.75513
614.00000,1145.23486
616.00000,1140.73865
618.00000,1121.73682
620.00000,1088.52014
622.00000,1008.35754
624.00000,888.26007
626.00000,757.48859
628.00000,633.37524
630.00000,521.04822
632.00000,449.82642
634.00000,402.93137
636.00000,349.26093
638.00000,305.96780
640.00000,287.62994
642.00000,286.86218
644.00000,285.23166
646.00000,257.21411
648.00000,181.12132
650.00000,139.50336
652.00000,117.04679
654.00000,71.33371
656.00000,58.94610
658.00000,55.86894
660.00000,47.46858
662.00000,39.30433
664.00000,38.31755
666.00000,44.33157
668.00000,59.01479
670.00000,63.96416
672.00000,60.45765
674.00000,76.66990
676.00000,57.08263
678.00000,48.61378
680.00000,68.33083
682.00000,64.54071
684.00000,52.71536
686.00000,53.49938
688.00000,58.18654
690.00000,51.30415
692.00000,39.85180
694.00000,34.81041
696.00000,26.90493
698.00000,23.29490
700.00000,37.71496
702.00000,43.98312
704.00000,46.97312
706.00000,40.48745
708.00000,35.18956
710.00000,59.47416
712.00000,52.00329
714.00000,44.20370
716.00000,50.97387
718.00000,37.66583
720.00000,19.36865
722.00000,18.51576
724.00000,23.58667
726.00000,17.00452
728.00000,10.58540
730.00000,23.12665
732.00000,34.99381
734.00000,37.52465
736.00000,39.85026
738.00000,33.91311
740.00000,40.36700
742.00000,46.46700
744.00000,33.86528
746.00000,19.98184
748.00000,24.75586
750.00000,32.14020
752.00000,34.82800
754.00000,38.27196
756.00000,32.53690
758.00000,41.36773
760.00000,42.85865
762.00000,28.93006
764.00000,35.12749
766.00000,26.05344
768.00000,23.04426
770.00000,42.07407
772.00000,64.06567
774.00000,76.16654
776.00000,91.67730
778.00000,117.16976
780.00000,131.50197
782.00000,116.72887
784.00000,123.37929
786.00000,120.19130
788.00000,101.19124
790.00000,93.71259
792.00000,83.61155
794.00000,106.47509
796.00000,161.61662
798.00000,226.31818
800.00000,278.69125
802.00000,268.77332
804.00000,208.40134
806.00000,144.69652
808.00000,102.71189
810.00000,66.09998
812.00000,61.29770
814.00000,71.63307
816.00000,71.84356
818.00000,71.63175
820.00000,82.83228
822.00000,100.59254
824.00000,130.99037
826.00000,160.12517
828.00000,132.62596
830.00000,87.60484
832.00000,55.82521
834.00000,48.27290
836.00000,61.76869
838.00000,59.64271
840.00000,57.22206
842.00000,66.16527
844.00000,78.01657
846.00000,88.21205
848.00000,86.84410
850.00000,62.13427
852.00000,34.79745
854.00000,36.50330
856.00000,31.55473
858.00000,24.29060
860.00000,22.37627
862.00000,20.72748
864.00000,18.57018
866.00000,21.89171
868.00000,26.76144
870.00000,23.87888
872.00000,12.62101
874.00000,8.35243
876.00000,13.12594
878.00000,24.06613
880.00000,29.38639
882.00000,18.92790
884.00000,39.80526
886.00000,39.50076
888.00000,6.16667
890.00000,13.84032
892.00000,45.42141
894.00000,45.09365
896.00000,35.36062
898.00000,51.73465
900.00000,55.90807
902.00000,72.17954
904.00000,79.81867
906.00000,74.05121
908.00000,85.98482
910.00000,97.30800
912.00000,82.59890
914.00000,86.49979
916.00000,120.12956
918.00000,100.38699
920.00000,98.44277
922.00000,102.35196
924.00000,78.92875
926.00000,49.76537
928.00000,44.55376
930.00000,42.27404
932.00000,36.59526
934.00000,31.69768
936.00000,19.15088
938.00000,21.35796
940.00000,36.98955
942.00000,52.99918
944.00000,56.28318
946.00000,36.77419
948.00000,49.10897
950.00000,69.65340
952.00000,63.43564
954.00000,71.99149
956.00000,73.71840
958.00000,53.57917
960.00000,27.51478
962.00000,20.09071
964.00000,26.47253
966.00000,30.05879
968.00000,24.27536
970.00000,16.83507
972.00000,20.59743
974.00000,37.10983
976.00000,47.07611
978.00000,50.91757
980.00000,65.40430
982.00000,80.60941
984.00000,92.84560
986.00000,111.55235
988.00000,148.62944
990.00000,201.64058
992.00000,251.34662
994.00000,337.62396
996.00000,488.82870
998.00000,668.18250
1000.00000,789.94800
1002.00000,780.10895
1004.00000,650.36670
1006.00000,468.47311
1008.00000,300.38666
1010.00000,195.95827
1012.00000,159.59392
1014.00000,165.44078
1016.00000,174.75211
1018.00000,156.05632
1020.00000,135.27650
1022.00000,133.68655
1024.00000,154.88939
1026.00000,194.62660
1028.00000,235.77187
1030.00000,249.18135
1032.00000,230.83530
1034.00000,197.94371
1036.00000,158.12877
1038.00000,132.15675
1040.00000,95.63014
1042.00000,59.53580
1044.00000,76.28832
1046.00000,67.90815
1048.00000,52.64311
1050.00000,52.33900
1052.00000,51.61205
1054.00000,56.94117
1056.00000,88.35000
1058.00000,110.20234
1060.00000,123.49918
1062.00000,184.46246
1064.00000,237.28265
1066.00000,271.41922
1068.00000,271.51465
1070.00000,239.93495
1072.00000,243.45493
1074.00000,244.37538
1076.00000,258.75577
1078.00000,320.36331
1080.00000,427.48376
1082.00000,597.35638
1084.00000,796.41711
1086.00000,929.21014
1088.00000,920.33704
1090.00000,807.55261
1092.00000,676.51868
1094.00000,543.69464
1096.00000,428.31900
1098.00000,372.71848
1100.00000,320.33716
1102.00000,267.95322
1104.00000,225.37923
1106.00000,187.92738
1108.00000,158.34692
1110.00000,166.73599
1112.00000,154.68066
1114.00000,124.19644
1116.00000,144.83665
1118.00000,118.78112
1120.00000,114.34340
1122.00000,124.25747
1124.00000,95.04307
1126.00000,90.71415
1128.00000,77.57991
1130.00000,50.98396
1132.00000,25.84743
1134.00000,4.79255
1136.00000,-0.63925
1138.00000,16.44339
1140.00000,29.76247
1142.00000,25.52649
1144.00000,41.09276
1146.00000,63.38985
1148.00000,67.29328
1150.00000,94.59783
1152.00000,196.00008
1154.00000,276.06705
1156.00000,356.03378
1158.00000,417.65573
1160.00000,405.43484
1162.00000,342.39136
1164.00000,306.50778
1166.00000,266.46039
1168.00000,238.44606
1170.00000,272.87082
1172.00000,231.82680
1174.00000,190.50887
1176.00000,173.50954
1178.00000,159.93669
1180.00000,188.64264
1182.00000,163.44432
1184.00000,126.37274
1186.00000,114.16192
1188.00000,88.00178
1190.00000,78.82937
1192.00000,94.39297
1194.00000,108.15535
1196.00000,111.76704
1198.00000,128.75584
1200.00000,110.61199
1202.00000,85.44643
1204.00000,87.17308
1206.00000,90.05848
1208.00000,56.87346
1210.00000,43.79157
1212.00000,39.09349
1214.00000,15.81635
1216.00000,15.16887
1218.00000,5.94874
1220.00000,7.24041
1222.00000,24.52797
1224.00000,28.60710
1226.00000,26.20982
1228.00000,28.18308
1230.00000,39.60484
1232.00000,64.05388
1234.00000,102.14296
1236.00000,138.74707
1238.00000,203.51299
1240.00000,297.17917
1242.00000,388.61511
1244.00000,486.64999
1246.00000,562.76251
1248.00000,631.80231
1250.00000,720.46765
1252.00000,834.38574
1254.00000,1036.28723
1256.00000,1311.79163
1258.00000,1620.84253
1260.00000,1924.35376
1262.00000,2130.80737
1264.00000,2078.77637
1266.00000,1811.23511
1268.00000,1442.57642
1270.00000,1013.90381
1272.00000,686.45758
1274.00000,454.23099
1276.00000,272.09024
1278.00000,148.69765
1280.00000,92.23487
1282.00000,75.63084
1284.00000,86.31091
1286.00000,122.45283
1288.00000,170.53807
1290.00000,214.21109
1292.00000,280.18814
1294.00000,372.42590
1296.00000,454.47818
1298.00000,496.61530
1300.00000,497.95673
1302.00000,475.02258
1304.00000,457.04886
1306.00000,472.94629
1308.00000,527.05914
1310.00000,645.69849
1312.00000,847.65881
1314.00000,1123.12976
1316.00000,1461.19971
1318.00000,1928.26611
1320.00000,2497.88013
1322.00000,3030.74048
1324.00000,3405.28491
1326.00000,3676.17188
1328.00000,3763.41919
1330.00000,3709.28516
1332.00000,3618.59644
1334.00000,3401.14917
1336.00000,3064.74463
1338.00000,2638.31372
1340.00000,2215.47388
1342.00000,1914.87781
1344.00000,1683.43860
1346.00000,1593.83008
1348.00000,1665.26123
1350.00000,1778.15344
1352.00000,1770.22522
1354.00000,1568.88403
1356.00000,1298.06006
1358.00000,1043.19226
1360.00000,786.04913
1362.00000,666.32275
1364.00000,530.47815
1366.00000,350.77087
1368.00000,245.54330
1370.00000,185.37132
1372.00000,118.77280
1374.00000,85.35730
1376.00000,80.65453
1378.00000,35.83991
1380.00000,21.38780
1382.00000,34.48170
1384.00000,49.42790
1386.00000,67.20811
1388.00000,100.01949
1390.00000,122.08225
1392.00000,181.58267
1394.00000,292.89734
1396.00000,401.38638
1398.00000,524.05713
1400.00000,646.31653
1402.00000,740.38196
1404.00000,752.92267
1406.00000,630.50500
1408.00000,496.16855
1410.00000,365.46478
1412.00000,258.15051
1414.00000,218.88927
1416.00000,131.99127
1418.00000,105.57942
1420.00000,113.55744
1422.00000,73.03316
1424.00000,72.29487
1426.00000,53.87573
1428.00000,44.70226
1430.00000,62.52005
1432.00000,74.58603
1434.00000,122.03599
1436.00000,145.36574
1438.00000,155.25385
1440.00000,184.72717
1442.00000,179.28532
1444.00000,155.35480
1446.00000,148.67644
1448.00000,156.56956
1450.00000,155.67166
1452.00000,167.68369
1454.00000,172.37038
1456.00000,159.39854
1458.00000,128.00594
1460.00000,88.35546
1462.00000,126.10684
1464.00000,105.70679
1466.00000,36.44169
1468.00000,68.07584
1470.00000,41.99400
1472.00000,23.46580
1474.00000,42.13696
1476.00000,63.01023
1478.00000,94.13784
1480.00000,125.23533
1482.00000,195.98106
1484.00000,296.16818
1486.00000,379.11142
1488.00000,479.10666
1490.00000,521.90601
1492.00000,530.10626
1494.00000,555.22968
1496.00000,565.15222
1498.00000,604.84583
1500.00000,683.94257
1502.00000,736.39246
1504.00000,731.84698
1506.00000,781.76373
1508.00000,776.66101
1510.00000,743.31110
1512.00000,709.90491
1514.00000,577.53381
1516.00000,517.91370
1518.00000,392.08011
1520.00000,231.27100
1522.00000,204.34499
1524.00000,99.13454
1526.00000,63.44160
1528.00000,78.15436
1530.00000,44.23598
1532.00000,30.73535
1534.00000,50.94112
1536.00000,66.97905
1538.00000,74.96571
1540.00000,102.04915
1542.00000,137.09131
1544.00000,176.43835
1546.00000,167.01689
1548.00000,150.75888
1550.00000,217.87029
1552.00000,118.06327
1554.00000,106.83587
1556.00000,163.17418
1558.00000,48.55479
1560.00000,45.11683
1562.00000,36.44508
1564.00000,60.79832
1566.00000,139.61458
1568.00000,134.53627
1570.00000,243.78409
1572.00000,330.24728
1574.00000,403.46658
1576.00000,604.99463
1578.00000,768.39514
1580.00000,897.94214
1582.00000,1104.59705
1584.00000,1421.05212
1586.00000,1763.27673
1588.00000,2118.86011
1590.00000,2437.06348
1592.00000,2625.91724
1594.00000,2639.54199
1596.00000,2545.85400
1598.00000,2388.02881
1600.00000,2204.69263
1602.00000,1964.92798
1604.00000,1632.29358
1606.00000,1378.06787
1608.00000,1090.48572
1610.00000,815.92126
1612.00000,675.87018
1614.00000,501.70151
1616.00000,374.30618
1618.00000,297.85330
1620.00000,230.74640
1622.00000,175.94618
1624.00000,105.14940
1626.00000,102.49663
1628.00000,115.21931
1630.00000,63.24483
1632.00000,72.44339
1634.00000,105.69476
1636.00000,106.95085
1638.00000,96.09721
1640.00000,112.43559
1642.00000,80.37454
1644.00000,56.46802
1646.00000,66.85786
1648.00000,60.07060
1650.00000,20.15528
1652.00000,50.54326
1654.00000,84.57462
1656.00000,81.94506
1658.00000,119.84897
1660.00000,143.17879
1662.00000,166.96135
1664.00000,219.97908
1666.00000,273.38174
1668.00000,256.17719
1670.00000,196.87875
1672.00000,171.94357
1674.00000,142.10979
1676.00000,47.62054
1678.00000,88.54356
1680.00000,83.00121
1682.00000,37.34369
1684.00000,56.45400
1686.00000,9.39522
1688.00000,28.87143
1690.00000,36.95594
1692.00000,13.22748
1694.00000,59.47321
1696.00000,21.39032
1698.00000,4.58915
1700.00000,46.63736
1702.00000,52.59699
1704.00000,12.29483
1706.00000,117.02666
1708.00000,148.03110
1710.00000,71.10265
1712.00000,126.64561
1714.00000,108.59308
1716.00000,101.04884
1718.00000,155.00073
1720.00000,173.80859
1722.00000,102.16232
1724.00000,120.79891
1726.00000,147.57964
1728.00000,121.45846
1730.00000,133.14116
1732.00000,147.74554
1734.00000,139.06184
1736.00000,125.30719
1738.00000,128.99107
1740.00000,140.42654
1742.00000,152.76073
1744.00000,136.61978
1746.00000,123.51322
1748.00000,146.42119
1750.00000,112.59550
1752.00000,156.97896
1754.00000,177.62956
1756.00000,100.63137
1758.00000,125.85330
1760.00000,65.17505
1762.00000,46.73079
1764.00000,123.42388
1766.00000,116.65091
1768.00000,28.18651
1770.00000,78.01482
1772.00000,110.99541
1774.00000,24.76937
1776.00000,90.75702
1778.00000,66.04801
1780.00000,51.59348
1782.00000,95.32523
1784.00000,79.66864
1786.00000,94.50506
1788.00000,35.60797
1790.00000,62.73194
1792.00000,167.40443
1794.00000,28.67890
1796.00000,90.42651
1798.00000,110.06795
1800.00000,32.45958
1802.00000,95.73705
1804.00000,25.92710
1806.00000,21.65011
1808.00000,67.79019
1810.00000,46.76479
1812.00000,46.42314
1814.00000,81.63903
1816.00000,88.25692
1818.00000,57.41188
1820.00000,46.69073
1822.00000,65.15281
1824.00000,46.85054
1826.00000,58.36462
1828.00000,102.41240
1830.00000,45.24255
1832.00000,15.34518
1834.00000,42.40818
1836.00000,56.98904
1838.00000,43.10692
1840.00000,94.59381
1842.00000,81.27435
1844.00000,25.49371
1846.00000,38.71560
1848.00000,98.44972
1850.00000,56.49294
1852.00000,65.10379
1854.00000,118.27843
1856.00000,89.01529
1858.00000,100.39804
1860.00000,68.55638
1862.00000,82.85673
1864.00000,139.81088
1866.00000,64.60876
1868.00000,67.18845
1870.00000,78.81280
1872.00000,45.65995
1874.00000,46.39684
1876.00000,86.20895
1878.00000,23.58113
1880.00000,36.31658
1882.00000,124.86941
1884.00000,28.89734
1886.00000,88.17850
1888.00000,109.58282
1890.00000,71.74140
1892.00000,132.97115
1894.00000,119.03917
1896.00000,59.57035
1898.00000,70.56627
1900.00000,126.06729
1902.00000,101.20130
1904.00000,103.77031
1906.00000,127.91544
1908.00000,133.66040
1910.00000,122.59645
1912.00000,124.99129
1914.00000,155.09909
1916.00000,121.53508
1918.00000,81.60406
1920.00000,165.64622
1922.00000,117.02126
1924.00000,152.82443
1926.00000,184.08673
1928.00000,79.29537
1930.00000,180.72342
1932.00000,89.37592
1934.00000,81.44247
1936.00000,186.89384
1938.00000,6.82752
1940.00000,132.08623
1942.00000,122.20007
1944.00000,-7.53277
1946.00000,72.58688
1948.00000,64.93481
1950.00000,73.59443
1952.00000,66.84989
1954.00000,51.55801
1956.00000,118.15666
1958.00000,101.71534
1960.00000,119.59750
1962.00000,132.24252
1964.00000,93.09496
1966.00000,177.68472
1968.00000,115.59112
1970.00000,18.73987
1972.00000,81.78323
1974.00000,184.50716
1976.00000,68.61780
1978.00000,49.41022
1980.00000,95.40477
1982.00000,43.81687
1984.00000,114.67875
1986.00000,140.66798
1988.00000,55.68721
1990.00000,12.00859
1992.00000,102.48485
1994.00000,75.43074
1996.00000,101.43419
1998.00000,125.01634
2000.00000,48.12949
2002.00000,50.89083
2004.00000,52.30748
2006.00000,61.54355
2008.00000,78.86900
2010.00000,67.56495
2012.00000,53.61545
2014.00000,61.25257
2016.00000,72.63140
2018.00000,65.88939
2020.00000,67.75911
2022.00000,70.04155
2024.00000,64.06527
2026.00000,80.19772
2028.00000,79.73145
2030.00000,60.37403
2032.00000,56.31579
2034.00000,78.21270
2036.00000,72.35971
2038.00000,77.13179
2040.00000,84.07990
2042.00000,63.55991
2044.00000,64.47311
2046.00000,76.49841
2048.00000,68.90442
2050.00000,55.65142
2052.00000,79.50951
2054.00000,96.30688
2056.00000,76.94490
2058.00000,62.49866
2060.00000,93.27479
2062.00000,108.45544
2064.00000,94.81234
2066.00000,81.42314
2068.00000,80.62044
2070.00000,69.47270
2072.00000,67.36324
2074.00000,75.45470
2076.00000,81.41837
2078.00000,81.06208
2080.00000,84.55931
2082.00000,86.95117
2084.00000,84.48859
2086.00000,78.20448
2088.00000,72.22805
2090.00000,85.98034
2092.00000,105.23771
2094.00000,104.74068
2096.00000,82.13987
2098.00000,63.94483
2100.00000,85.91565
2102.00000,106.20862
2104.00000,83.11335
2106.00000,86.48398
2108.00000,83.83852
2110.00000,75.36182
2112.00000,82.31235
2114.00000,89.06071
2116.00000,71.14278
2118.00000,77.78803
2120.00000,100.00062
2122.00000,75.65613
2124.00000,41.24461
2126.00000,66.82487
2128.00000,91.06091
2130.00000,62.38369
2132.00000,70.15009
2134.00000,83.16914
2136.00000,83.72036
2138.00000,74.82031
2140.00000,59.89969
2142.00000,50.25376
2144.00000,43.98822
2146.00000,54.29932
2148.00000,81.45681
2150.00000,81.88763
2152.00000,58.06130
2154.00000,67.70763
2156.00000,90.20300
2158.00000,53.38561
2160.00000,87.97471
2162.00000,100.19775
2164.00000,64.30563
2166.00000,68.82049
2168.00000,80.05677
2170.00000,68.70604
2172.00000,61.01544
2174.00000,68.84702
2176.00000,58.15850
2178.00000,69.70030
2180.00000,77.50433
2182.00000,59.36040
2184.00000,48.42380
2186.00000,75.27979
2188.00000,81.87611
2190.00000,57.45076
2192.00000,48.24849
2194.00000,70.47779
2196.00000,67.47829
2198.00000,72.52126
2200.00000,95.19399
2202.00000,80.13605
2204.00000,71.64193
2206.00000,95.36682
2208.00000,89.60740
2210.00000,39.38165
2212.00000,77.89525
2214.00000,79.22356
2216.00000,57.11309
2218.00000,77.73492
2220.00000,91.40342
2222.00000,81.48466
2224.00000,87.10450
2226.00000,87.78868
2228.00000,55.28539
2230.00000,85.02900
2232.00000,90.17635
2234.00000,76.67560
2236.00000,92.57904
2238.00000,92.16859
2240.00000,103.64834
2242.00000,83.50931
2244.00000,56.99568
2246.00000,97.06340
2248.00000,88.04377
2250.00000,53.70999
2252.00000,72.35308
2254.00000,123.20587
2256.00000,84.85913
2258.00000,67.42975
2260.00000,99.42207
2262.00000,105.98069
2264.00000,57.45778
2266.00000,75.23651
2268.00000,87.63920
2270.00000,65.44901
2272.00000,71.77106
2274.00000,85.64696
2276.00000,67.43319
2278.00000,61.98346
2280.00000,84.94139
2282.00000,65.98299
2284.00000,68.48128
2286.00000,72.65543
2288.00000,48.89181
2290.00000,33.51115
2292.00000,71.02715
2294.00000,61.34828
2296.00000,44.60660
2298.00000,82.88306
2300.00000,66.07935
2302.00000,37.10674
2304.00000,55.01312
2306.00000,75.66728
2308.00000,35.20328
2310.00000,62.49820
2312.00000,63.08329
2314.00000,31.34089
2316.00000,52.45274
2318.00000,66.83717
2320.00000,50.65424
2322.00000,34.20515
2324.00000,41.70864
2326.00000,56.70971
2328.00000,66.25388
2330.00000,38.71210
2332.00000,18.75560
2334.00000,65.01126
2336.00000,88.60931
2338.00000,43.25321
2340.00000,29.67406
2342.00000,77.05341
2344.00000,39.04620
2346.00000,31.82282
2348.00000,61.88488
2350.00000,64.92152
2352.00000,32.71453
2354.00000,24.35090
2356.00000,40.43921
2358.00000,63.36190
2360.00000,75.37869
2362.00000,58.92634
2364.00000,42.82408
2366.00000,36.45261
2368.00000,39.48013
2370.00000,55.48750
2372.00000,63.94656
2374.00000,42.69305
2376.00000,35.40922
2378.00000,69.40335
2380.00000,52.72288
2382.00000,50.71136
2384.00000,57.53261
2386.00000,48.17868
2388.00000,65.03963
2390.00000,63.74527
2392.00000,46.78808
2394.00000,57.45628
2396.00000,89.40147
2398.00000,43.68866
2400.00000,28.84147
2402.00000,64.36849
2404.00000,72.51215
2406.00000,47.61177
2408.00000,47.07543
2410.00000,86.80876
2412.00000,99.60254
2414.00000,44.63657
2416.00000,73.67011
2418.00000,95.52437
2420.00000,77.70974
2422.00000,84.02836
2424.00000,83.23170
2426.00000,71.95856
2428.00000,66.23016
2430.00000,73.30849
2432.00000,83.06916
2434.00000,89.69914
2436.00000,82.37062
2438.00000,77.40143
2440.00000,90.18241
2442.00000,78.39137
2444.00000,43.37803
2446.00000,40.71918
2448.00000,74.02345
2450.00000,61.02708
2452.00000,42.50972
2454.00000,40.00014
2456.00000,39.26896
2458.00000,29.76518
2460.00000,33.21336
2462.00000,50.25381
2464.00000,58.64959
2466.00000,40.46899
2468.00000,16.72559
2470.00000,47.07729
2472.00000,66.25498
2474.00000,35.08960
2476.00000,32.91633
2478.00000,73.82718
2480.00000,70.01332
2482.00000,43.02966
2484.00000,70.77565
2486.00000,77.99934
2488.00000,41.88769
2490.00000,42.86132
2492.00000,88.45170
2494.00000,61.04676
2496.00000,33.40212
2498.00000,47.24951
2500.00000,68.18063
2502.00000,51.74924
2504.00000,28.75917
2506.00000,40.31654
2508.00000,63.45280
2510.00000,51.10884
2512.00000,21.34361
2514.00000,61.99641
2516.00000,91.08215
2518.00000,45.15341
2520.00000,15.63089
2522.00000,76.40323
2524.00000,72.77088
2526.00000,17.35503
2528.00000,36.27557
2530.00000,57.79749
2532.00000,61.82419
2534.00000,58.58451
2536.00000,56.53402
2538.00000,51.15694
2540.00000,35.12688
2542.00000,36.33084
2544.00000,58.01056
2546.00000,59.53475
2548.00000,22.73176
2550.00000,59.01437
2552.00000,69.36090
2554.00000,-0.61635
2556.00000,43.76451
2558.00000,68.45054
2560.00000,58.95490
2562.00000,56.43781
2564.00000,58.27368
2566.00000,77.46851
2568.00000,61.61594
2570.00000,55.42554
2572.00000,110.92934
2574.00000,132.62764
2576.00000,98.76254
2578.00000,118.30099
2580.00000,160.85315
2582.00000,79.90363
2584.00000,85.25268
2586.00000,127.53053
2588.00000,133.24252
2590.00000,134.25310
2592.00000,143.35541
2594.00000,116.29700
2596.00000,96.03682
2598.00000,115.20805
2600.00000,115.64463
2602.00000,116.75227
2604.00000,114.39822
2606.00000,129.04994
2608.00000,162.35687
2610.00000,107.26861
2612.00000,70.62294
2614.00000,112.13734
2616.00000,140.71057
2618.00000,68.47105
2620.00000,101.03951
2622.00000,119.66193
2624.00000,54.45305
2626.00000,71.16565
2628.00000,106.12265
2630.00000,64.41523
2632.00000,31.39385
2634.00000,99.23008
2636.00000,114.05766
2638.00000,49.19862
2640.00000,66.52502
2642.00000,168.63255
2644.00000,135.80357
2646.00000,89.03549
2648.00000,114.17176
2650.00000,130.96869
2652.00000,76.86922
2654.00000,114.29569
2656.00000,128.45381
2658.00000,92.12914
2660.00000,93.73163
2662.00000,130.78589
2664.00000,39.02163
2666.00000,45.93392
2668.00000,157.41806
2670.00000,91.45128
2672.00000,51.71318
2674.00000,134.08044
2676.00000,159.00188
2678.00000,55.27319
2680.00000,101.96041
2682.00000,91.52849
2684.00000,44.47401
2686.00000,68.94397
2688.00000,107.13393
2690.00000,108.85786
2692.00000,118.33202
2694.00000,147.04303
2696.00000,137.99040
2698.00000,70.89437
2700.00000,93.74158
2702.00000,121.66970
2704.00000,73.03687
2706.00000,92.09019
2708.00000,149.49579
2710.00000,137.73184
2712.00000,77.13665
2714.00000,80.86186
2716.00000,115.19065
2718.00000,96.35493
2720.00000,89.70613
2722.00000,147.87975
2724.00000,146.46411
2726.00000,115.46153
2728.00000,124.29134
2730.00000,144.19299
2732.00000,104.36089
2734.00000,104.83543
2736.00000,141.97684
2738.00000,124.50648
2740.00000,59.05886
2742.00000,110.35206
2744.00000,126.82585
2746.00000,91.13497
2748.00000,85.52842
2750.00000,101.04732
2752.00000,65.18298
2754.00000,108.02897
2756.00000,144.33084
2758.00000,40.43486
2760.00000,91.44050
2762.00000,59.47198
2764.00000,9.84625
2766.00000,89.89455
2768.00000,94.89584
2770.00000,39.13691
2772.00000,21.63388
2774.00000,59.10432
2776.00000,79.40313
2778.00000,66.20728
2780.00000,59.28954
2782.00000,52.02264
2784.00000,23.22658
2786.00000,11.30521
2788.00000,31.70810
2790.00000,53.37733
2792.00000,63.18109
2794.00000,71.82100
2796.00000,30.82989
2798.00000,2.10031
2800.00000,30.64942
2802.00000,56.16437
2804.00000,1.02526
2806.00000,58.02666
2808.00000,89.40829
2810.00000,-3.39382
2812.00000,18.70879
2814.00000,48.35727
2816.00000,37.11165
2818.00000,29.34135
2820.00000,41.71019
2822.00000,4.33720
2824.00000,30.69750
2826.00000,93.63084
2828.00000,69.90121
2830.00000,-3.37725
2832.00000,79.85161
2834.00000,90.62040
2836.00000,24.63740
2838.00000,164.90248
2840.00000,151.07701
2842.00000,139.24725
2844.00000,226.89748
2846.00000,278.34763
2848.00000,261.64951
2850.00000,315.36649
2852.00000,345.15652
2854.00000,314.59933
2856.00000,390.03400
2858.00000,437.56461
2860.00000,418.55875
2862.00000,405.47250
2864.00000,437.63818
2866.00000,435.56833
2868.00000,467.71655
2870.00000,491.94281
2872.00000,463.56650
2874.00000,471.73965
2876.00000,476.69165
2878.00000,439.23187
2880.00000,420.38727
2882.00000,471.48975
2884.00000,447.68997
2886.00000,460.32016
2888.00000,486.58795
2890.00000,456.62009
2892.00000,506.75449
2894.00000,590.28802
2896.00000,606.96454
2898.00000,606.36029
2900.00000,687.86145
2902.00000,638.09229
2904.00000,652.14990
2906.00000,732.77362
2908.00000,729.91125
2910.00000,814.92456
2912.00000,833.76624
2914.00000,784.87689
2916.00000,796.20331
2918.00000,865.07935
2920.00000,827.86224
2922.00000,881.56879
2924.00000,954.24084
2926.00000,814.30115
2928.00000,837.34686
2930.00000,911.50458
2932.00000,863.85345
2934.00000,821.26691
2936.00000,997.07184
2938.00000,868.67596
2940.00000,743.03314
2942.00000,829.00293
2944.00000,758.97693
2946.00000,651.52161
2948.00000,656.01117
2950.00000,664.50110
2952.00000,562.75000
2954.00000,532.29413
2956.00000,505.41769
2958.00000,477.86432
2960.00000,480.43503
2962.00000,475.32132
2964.00000,432.53366
2966.00000,334.56845
2968.00000,276.21643
2970.00000,316.83502
2972.00000,281.30804
2974.00000,255.94514
2976.00000,219.30595
2978.00000,153.49190
2980.00000,191.17999
2982.00000,228.71886
2984.00000,134.54341
2986.00000,82.55931
2988.00000,222.70677
2990.00000,61.68206
2992.00000,37.30823
2994.00000,129.31773
2996.00000,43.08188
2998.00000,62.55957
3000.00000,88.09000
3002.00000,63.18233
3004.00000,30.56493
3006.00000,32.73246
3008.00000,71.88576
3010.00000,55.64075
3012.00000,-2.39905
3014.00000,-1.82982
3016.00000,50.41073
3018.00000,54.43052
3020.00000,70.92181
3022.00000,121.64443
3024.00000,92.65324
3026.00000,129.83301
3028.00000,183.84467
3030.00000,209.08734
3032.00000,252.48619
3034.00000,287.73953
3036.00000,317.18259
3038.00000,351.86252
3040.00000,403.88211
3042.00000,477.88605
3044.00000,526.08661
3046.00000,517.63367
3048.00000,585.58429
3050.00000,795.59259
3052.00000,729.83801
3054.00000,696.71204
3056.00000,823.67352
3058.00000,888.12231
3060.00000,855.84894
3062.00000,893.43927
3064.00000,897.79669
3066.00000,805.01642
3068.00000,782.18054
3070.00000,754.29968
3072.00000,636.78455
3074.00000,603.30176
3076.00000,678.80481
3078.00000,372.41565
3080.00000,419.39114
3082.00000,609.82434
3084.00000,475.12396
3086.00000,453.15707
3088.00000,498.52542
3090.00000,369.78549
3092.00000,244.42696
3094.00000,407.43607
3096.00000,351.25464
3098.00000,270.75006
3100.00000,272.61917
3102.00000,268.25238
3104.00000,298.03879
3106.00000,189.24294
3108.00000,224.69878
3110.00000,322.53769
3112.00000,68.16493
3114.00000,187.68765
3116.00000,283.14166
3118.00000,139.69427
3120.00000,110.99371
3122.00000,246.56006
3124.00000,161.83287
3126.00000,92.23746
3128.00000,255.70319
3130.00000,276.77136
3132.00000,163.95633
3134.00000,172.52252
3136.00000,221.79695
3138.00000,134.03177
3140.00000,278.04678
3142.00000,202.63896
3144.00000,78.37518
3146.00000,236.57249
3148.00000,282.63702
3150.00000,251.61975
3152.00000,156.97437
3154.00000,155.19127
3156.00000,313.10114
3158.00000,62.66331
3160.00000,143.03581
3162.00000,301.97879
3164.00000,7.70293
3166.00000,212.01802
3168.00000,368.16876
3170.00000,274.00183
3172.00000,141.40103
3174.00000,79.66228
3176.00000,177.12654
3178.00000,295.98871
3180.00000,239.63251
3182.00000,120.16070
3184.00000,345.11386
3186.00000,183.51375
3188.00000,64.90042
3190.00000,394.21231
3192.00000,279.72852
3194.00000,-1.48491
3196.00000,183.92343
3198.00000,459.17728
3200.00000,132.69611
