300.00000,81.34659
302.00000,83.90825
304.00000,71.21186
306.00000,61.75934
308.00000,66.59734
310.00000,81.90912
312.00000,101.43979
314.00000,127.02586
316.00000,129.06517
318.00000,107.63781
320.00000,100.68446
322.00000,128.38361
324.00000,133.69330
326.00000,107.49535
328.00000,84.12785
330.00000,81.15562
332.00000,68.40336
334.00000,66.21359
336.00000,64.34213
338.00000,43.64977
340.00000,37.51332
342.00000,51.29401
344.00000,64.30688
346.00000,73.62969
348.00000,91.34762
350.00000,95.06369
352.00000,110.01498
354.00000,162.81569
356.00000,216.17488
358.00000,196.45374
360.00000,186.54019
362.00000,187.57956
364.00000,158.84865
366.00000,110.16004
368.00000,92.30609
370.00000,78.01258
372.00000,57.39176
374.00000,48.16552
376.00000,47.74002
378.00000,41.79249
380.00000,39.66116
382.00000,45.39032
384.00000,45.56807
386.00000,37.65003
388.00000,28.95891
390.00000,18.36719
392.00000,26.94938
394.00000,91.82185
396.00000,141.41286
398.00000,149.19098
400.00000,150.95006
402.00000,178.42943
404.00000,201.43092
406.00000,242.89870
408.00000,276.20096
410.00000,285.19482
412.00000,327.34506
414.00000,379.81177
416.00000,431.23874
418.00000,501.01810
420.00000,598.67010
422.00000,687.31860
424.00000,785.56067
426.00000,902.72076
428.00000,1023.38928
430.00000,1137.22864
432.00000,1262.48120
434.00000,1401.18054
436.00000,1553.88464
438.00000,1710.30957
440.00000,1823.70251
442.00000,1891.86401
444.00000,1954.78162
446.00000,2014.75403
448.00000,2016.56946
450.00000,1979.68970
452.00000,1891.17761
454.00000,1756.03015
456.00000,1613.16724
458.00000,1479.81836
460.00000,1347.78455
462.00000,1190.15833
464.00000,1020.93036
466.00000,889.98334
468.00000,752.17712
470.00000,640.19495
472.00000,556.44299
474.00000,466.63638
476.00000,404.04956
478.00000,350.32904
480.00000,277.14005
482.00000,207.47389
484.00000,189.76341
486.00000,165.96480
488.00000,136.10002
490.00000,115.53809
492.00000,102.33881
494.00000,97.00010
496.00000,86.26334
498.00000,71.72494
500.00000,67.82462
502.00000,75.10040
504.00000,59.79926
506.00000,41.22478
508.00000,42.93045
510.00000,61.24551
512.00000,77.58433
514.00000,66.05209
516.00000,39.70001
518.00000,23.13495
520.00000,22.42915
522.00000,41.19019
524.00000,52.41337
526.00000,45.65692
528.00000,36.93952
530.00000,33.15254
532.00000,14.38979
534.00000,30.30129
536.00000,66.55550
538.00000,32.89717
540.00000,17.73821
542.00000,18.60311
544.00000,20.79444
546.00000,29.53071
548.00000,26.44918
550.00000,18.85363
552.00000,21.56397
554.00000,33.62357
556.00000,43.99408
558.00000,64.51513
560.00000,86.27834
562.00000,81.55083
564.00000,73.51757
566.00000,142.23323
568.00000,180.72928
570.00000,181.96327
572.00000,210.82791
574.00000,281.17249
576.00000,340.68149
578.00000,388.50110
580.00000,434.42007
582.00000,485.87195
584.00000,555.71460
586.00000,615.91815
588.00000,689.88757
590.00000,789.57111
592.00000,883.00214
594.00000,975.35516
596.00000,1087.17480
598.00000,1203.18823
600.00000,1294.14514
602.00000,1366.17969
604.00000,1438.52441
606.00000,1522.53259
608.00000,1583.35242
610.00000,1572.43030
612.00000,1529.71130
614.00000,1517.05359
616.00000,1521.14087
618.00000,1486.43689
620.00000,1400.76941
622.00000,1283.29358
624.00000,1153.10498
626.00000,1027.22681
628.00000,908.36444
630.00000,770.75745
632.00000,648.57465
634.00000,564.40289
636.00000,512.37775
638.00000,483.04465
640.00000,457.54623
642.00000,417.94809
644.00000,378.71674
646.00000,358.81879
648.00000,313.48322
650.00000,238.54126
652.00000,183.80728
654.00000,173.45833
656.00000,158.64034
658.00000,134.62767
660.00000,120.65720
662.00000,116.46139
664.00000,104.49713
666.00000,92.31109
668.00000,85.92266
670.00000,82.79790
672.00000,78.16111
674.00000,73.83608
676.00000,76.38202
678.00000,68.00704
680.00000,52.11684
682.00000,48.30480
684.00000,36.26202
686.00000,22.58266
688.00000,13.15515
690.00000,10.94001
692.00000,23.13638
694.00000,40.00034
696.00000,34.72635
698.00000,14.80218
700.00000,13.53618
702.00000,27.57442
704.00000,50.51141
706.00000,54.11681
708.00000,41.99160
710.00000,59.15901
712.00000,62.75812
714.00000,61.48043
716.00000,63.02171
718.00000,48.55136
720.00000,24.62053
722.00000,21.49752
724.00000,37.69870
726.00000,44.01042
728.00000,27.79023
730.00000,28.32862
732.00000,48.18431
734.00000,69.41802
736.00000,75.00418
738.00000,55.31185
740.00000,43.27880
742.00000,57.31874
744.00000,75.64075
746.00000,65.05494
748.00000,48.40873
750.00000,40.15504
752.00000,48.88040
754.00000,73.53944
756.00000,84.06753
758.00000,43.97425
760.00000,18.45622
762.00000,46.51911
764.00000,56.20032
766.00000,37.88773
768.00000,39.72770
770.00000,64.65240
772.00000,75.51292
774.00000,79.63206
776.00000,95.20344
778.00000,120.14909
780.00000,137.73309
782.00000,141.61696
784.00000,149.21426
786.00000,124.85146
788.00000,93.19213
790.00000,104.90789
792.00000,117.60396
794.00000,125.37640
796.00000,157.68387
798.00000,204.60109
800.00000,214.37064
802.00000,206.91063
804.00000,169.75821
806.00000,134.22540
808.00000,125.76559
810.00000,84.86160
812.00000,78.21525
814.00000,76.42661
816.00000,56.11570
818.00000,69.74232
820.00000,78.56766
822.00000,100.46620
824.00000,126.47570
826.00000,126.79617
828.00000,123.10816
830.00000,126.89413
832.00000,132.85452
834.00000,132.65308
836.00000,124.84483
838.00000,115.31462
840.00000,130.57622
842.00000,149.48930
844.00000,139.60030
846.00000,132.13416
848.00000,149.00185
850.00000,137.91086
852.00000,93.86748
854.00000,78.11430
856.00000,56.13956
858.00000,48.25985
860.00000,42.88995
862.00000,18.61015
864.00000,17.15815
866.00000,47.66156
868.00000,45.49624
870.00000,13.97331
872.00000,28.27839
874.00000,41.43541
876.00000,49.65833
878.00000,60.82754
880.00000,69.99932
882.00000,72.13976
884.00000,74.91972
886.00000,61.36651
888.00000,37.46547
890.00000,38.21203
892.00000,55.13694
894.00000,49.40342
896.00000,40.92761
898.00000,53.83800
900.00000,51.05093
902.00000,62.78480
904.00000,72.39481
906.00000,72.12981
908.00000,82.30426
910.00000,80.14864
912.00000,83.71487
914.00000,80.44660
916.00000,64.15975
918.00000,74.34783
920.00000,70.03033
922.00000,49.92368
924.00000,34.47557
926.00000,28.49367
928.00000,25.78189
930.00000,22.39561
932.00000,14.61704
934.00000,5.62380
936.00000,5.95992
938.00000,10.47662
940.00000,17.83390
942.00000,19.07570
944.00000,6.61489
946.00000,0.64161
948.00000,5.54272
950.00000,31.63625
952.00000,61.42486
954.00000,50.03629
956.00000,44.89324
958.00000,46.19456
960.00000,33.88716
962.00000,14.15625
964.00000,12.61347
966.00000,23.28062
968.00000,32.27748
970.00000,29.48061
972.00000,17.90888
974.00000,31.28587
976.00000,56.82320
978.00000,73.60674
980.00000,74.56441
982.00000,57.98743
984.00000,86.41653
986.00000,128.09087
988.00000,145.04813
990.00000,188.42592
992.00000,251.71031
994.00000,347.00879
996.00000,484.18878
998.00000,642.24872
1000.00000,765.74750
1002.00000,772.54034
1004.00000,641.16168
1006.00000,439.69934
1008.00000,271.43042
1010.00000,159.54964
1012.00000,118.14958
1014.00000,116.67061
1016.00000,110.39330
1018.00000,119.30832
1020.00000,151.59157
1022.00000,173.12480
1024.00000,176.60202
1026.00000,205.77364
1028.00000,246.62450
1030.00000,284.13818
1032.00000,287.19296
1034.00000,245.36681
1036.00000,213.41321
1038.00000,179.66536
1040.00000,169.61079
1042.00000,182.07776
1044.00000,164.97070
1046.00000,165.15738
1048.00000,170.11319
1050.00000,160.96037
1052.00000,153.39539
1054.00000,175.74321
1056.00000,234.90436
1058.00000,258.13214
1060.00000,244.96121
1062.00000,292.28842
1064.00000,337.55377
1066.00000,361.65445
1068.00000,357.61157
1070.00000,328.60663
1072.00000,319.81360
1074.00000,328.74045
1076.00000,326.64926
1078.00000,342.32422
1080.00000,445.16776
1082.00000,586.08105
1084.00000,704.00452
1086.00000,787.23132
1088.00000,798.22278
1090.00000,650.06891
1092.00000,530.71405
1094.00000,429.07559
1096.00000,315.59506
1098.00000,276.94052
1100.00000,230.01129
1102.00000,187.41025
1104.00000,151.78445
1106.00000,115.77402
1108.00000,122.66666
1110.00000,116.49986
1112.00000,93.95423
1114.00000,84.39365
1116.00000,90.49903
1118.00000,93.71790
1120.00000,84.94444
1122.00000,79.12788
1124.00000,93.07381
1126.00000,108.18017
1128.00000,74.89494
1130.00000,50.80284
1132.00000,75.93789
1134.00000,94.52940
1136.00000,76.33128
1138.00000,86.42537
1140.00000,98.29276
1142.00000,80.28269
1144.00000,118.49334
1146.00000,124.83253
1148.00000,137.83279
1150.00000,190.78694
1152.00000,235.84258
1154.00000,307.14743
1156.00000,374.14166
1158.00000,411.79181
1160.00000,409.62201
1162.00000,350.94949
1164.00000,280.37552
1166.00000,260.78952
1168.00000,283.38138
1170.00000,282.97781
1172.00000,262.07965
1174.00000,239.15082
1176.00000,227.53299
1178.00000,236.35796
1180.00000,261.22238
1182.00000,250.39725
1184.00000,223.92410
1186.00000,208.51540
1188.00000,197.64693
1190.00000,199.70169
1192.00000,201.08888
1194.00000,196.48332
1196.00000,207.16684
1198.00000,246.57855
1200.00000,239.50854
1202.00000,223.36028
1204.00000,221.10129
1206.00000,190.21559
1208.00000,154.46675
1210.00000,180.27258
1212.00000,180.03622
1214.00000,115.17541
1216.00000,139.45885
1218.00000,168.45795
1220.00000,152.80150
1222.00000,146.62187
1224.00000,194.68892
1226.00000,209.87582
1228.00000,217.23575
1230.00000,234.45593
1232.00000,256.21863
1234.00000,288.05426
1236.00000,309.50800
1238.00000,361.51599
1240.00000,435.36115
1242.00000,491.94907
1244.00000,580.94989
1246.00000,616.53375
1248.00000,659.26202
1250.00000,766.33496
1252.00000,843.97736
1254.00000,966.92023
1256.00000,1148.21155
1258.00000,1357.19080
1260.00000,1554.39099
1262.00000,1674.00415
1264.00000,1657.35645
1266.00000,1476.93127
1268.00000,1179.04175
1270.00000,880.87000
1272.00000,662.99860
1274.00000,493.97632
1276.00000,355.93832
1278.00000,280.59274
1280.00000,265.23367
1282.00000,256.41202
1284.00000,231.13939
1286.00000,222.94615
1288.00000,276.49216
1290.00000,356.55222
1292.00000,410.51294
1294.00000,447.13641
1296.00000,504.38217
1298.00000,555.83868
1300.00000,560.51953
1302.00000,531.16907
1304.00000,519.06091
1306.00000,558.54987
1308.00000,627.66187
1310.00000,712.08838
1312.00000,830.71899
1314.00000,1004.18829
1316.00000,1227.35461
1318.00000,1558.16357
1320.00000,1949.60010
1322.00000,2307.44800
1324.00000,2582.15381
1326.00000,2737.64575
1328.00000,2796.05542
1330.00000,2762.29834
1332.00000,2624.32642
1334.00000,2413.97900
1336.00000,2177.14111
1338.00000,1914.45032
1340.00000,1620.66821
1342.00000,1336.95081
1344.00000,1146.19519
1346.00000,1117.78137
1348.00000,1187.19934
1350.00000,1241.44922
1352.00000,1254.46582
1354.00000,1100.57813
1356.00000,887.26074
1358.00000,710.03253
1360.00000,524.58398
1362.00000,449.56204
1364.00000,321.69373
1366.00000,204.34506
1368.00000,220.94075
1370.00000,139.33092
1372.00000,83.96746
1374.00000,81.69711
1376.00000,82.85582
1378.00000,85.21178
1380.00000,71.42142
1382.00000,48.09888
1384.00000,55.31111
1386.00000,91.99818
1388.00000,91.18832
1390.00000,132.64003
1392.00000,195.89949
1394.00000,236.73947
1396.00000,298.74622
1398.00000,441.01831
1400.00000,531.52521
1402.00000,515.08826
1404.00000,474.59711
1406.00000,470.29358
1408.00000,407.05530
1410.00000,315.18066
1412.00000,225.19887
1414.00000,116.83864
1416.00000,87.37735
1418.00000,89.67548
1420.00000,108.04697
1422.00000,134.07976
1424.00000,85.71286
1426.00000,29.25383
1428.00000,32.29931
1430.00000,60.72331
1432.00000,61.26091
1434.00000,125.60316
1436.00000,160.31226
1438.00000,156.88846
1440.00000,165.27478
1442.00000,149.12706
1444.00000,154.82413
1446.00000,153.71573
1448.00000,135.36049
1450.00000,142.30984
1452.00000,154.75450
1454.00000,143.06798
1456.00000,163.82735
1458.00000,198.61836
1460.00000,108.96156
1462.00000,91.23920
1464.00000,93.10677
1466.00000,68.37097
1468.00000,85.71849
1470.00000,61.88867
1472.00000,65.87325
1474.00000,105.35484
1476.00000,125.77458
1478.00000,134.07878
1480.00000,181.43100
1482.00000,236.40042
1484.00000,269.05545
1486.00000,318.46628
1488.00000,427.03427
1490.00000,461.03027
1492.00000,463.65369
1494.00000,496.61093
1496.00000,467.50885
1498.00000,518.19928
1500.00000,574.53918
1502.00000,600.48517
1504.00000,647.67889
1506.00000,612.76105
1508.00000,599.36896
1510.00000,608.93640
1512.00000,586.80939
1514.00000,550.41846
1516.00000,438.64551
1518.00000,368.23724
1520.00000,316.55594
1522.00000,182.34683
1524.00000,146.74469
1526.00000,135.92255
1528.00000,120.91537
1530.00000,104.90158
1532.00000,49.93919
1534.00000,57.89903
1536.00000,78.55724
1538.00000,86.76527
1540.00000,102.04306
1542.00000,62.00129
1544.00000,126.34489
1546.00000,190.58450
1548.00000,157.49905
1550.00000,185.24806
1552.00000,207.86909
1554.00000,189.63628
1556.00000,140.13432
1558.00000,92.01952
1560.00000,90.73018
1562.00000,107.27016
1564.00000,105.28817
1566.00000,115.74417
1568.00000,185.41328
1570.00000,209.12750
1572.00000,295.80603
1574.00000,406.21725
1576.00000,444.65570
1578.00000,602.99194
1580.00000,747.76013
1582.00000,895.72217
1584.00000,1114.08936
1586.00000,1342.01343
1588.00000,1587.57227
1590.00000,1828.17480
1592.00000,1946.86401
1594.00000,1917.18311
1596.00000,1929.94592
1598.00000,1823.43286
1600.00000,1659.34778
1602.00000,1521.05151
1604.00000,1314.20593
1606.00000,1116.80200
1608.00000,931.28351
1610.00000,734.85101
1612.00000,569.61292
1614.00000,512.79279
1616.00000,438.78577
1618.00000,319.64365
1620.00000,242.39914
1622.00000,249.79704
1624.00000,223.46037
1626.00000,218.14079
1628.00000,232.21754
1630.00000,178.89088
1632.00000,95.90965
1634.00000,206.95584
1636.00000,235.34833
1638.00000,108.76966
1640.00000,175.97545
1642.00000,191.92166
1644.00000,139.44727
1646.00000,99.79664
1648.00000,116.59705
1650.00000,183.77821
1652.00000,167.34833
1654.00000,151.69633
1656.00000,203.88274
1658.00000,214.73706
1660.00000,166.11415
1662.00000,233.56133
1664.00000,280.53711
1666.00000,201.00569
1668.00000,305.05292
1670.00000,247.13702
1672.00000,184.59348
1674.00000,217.30632
1676.00000,124.24303
1678.00000,132.91238
1680.00000,110.17110
1682.00000,62.89087
1684.00000,96.73753
1686.00000,99.74483
1688.00000,87.61250
1690.00000,53.93184
1692.00000,28.08902
1694.00000,71.85693
1696.00000,123.55031
1698.00000,78.98597
1700.00000,46.28007
1702.00000,111.86833
1704.00000,95.46168
1706.00000,34.31897
1708.00000,86.98190
1710.00000,156.49352
1712.00000,74.58733
1714.00000,162.39825
1716.00000,138.56087
1718.00000,91.92530
1720.00000,198.59294
1722.00000,140.78656
1724.00000,55.31666
1726.00000,117.22314
1728.00000,199.47403
1730.00000,110.54244
1732.00000,108.02524
1734.00000,117.68396
1736.00000,104.85638
1738.00000,133.43623
1740.00000,183.90063
1742.00000,164.31119
1744.00000,119.82400
1746.00000,157.24930
1748.00000,235.81151
1750.00000,125.88958
1752.00000,115.13259
1754.00000,178.68576
1756.00000,154.67422
1758.00000,160.61861
1760.00000,104.22279
1762.00000,84.96938
1764.00000,139.05324
1766.00000,135.90683
1768.00000,55.60613
1770.00000,114.87849
1772.00000,179.00223
1774.00000,96.81020
1776.00000,75.40596
1778.00000,91.59432
1780.00000,96.74329
1782.00000,77.26836
1784.00000,53.80945
1786.00000,62.07726
1788.00000,73.34946
1790.00000,95.03629
1792.00000,115.86173
1794.00000,89.10791
1796.00000,105.32174
1798.00000,105.42635
1800.00000,97.68060
1802.00000,143.34546
1804.00000,132.37300
1806.00000,113.10155
1808.00000,107.86215
1810.00000,129.82162
1812.00000,195.29712
1814.00000,167.11540
1816.00000,205.96770
1818.00000,221.78487
1820.00000,88.92664
1822.00000,217.00371
1824.00000,196.50215
1826.00000,104.81842
1828.00000,146.41362
1830.00000,121.36979
1832.00000,144.02884
1834.00000,102.16228
1836.00000,69.06757
1838.00000,139.30702
1840.00000,25.26194
1842.00000,146.55690
1844.00000,214.94644
1846.00000,88.19157
1848.00000,244.42950
1850.00000,152.52501
1852.00000,107.99156
1854.00000,204.44858
1856.00000,177.58752
1858.00000,182.64731
1860.00000,149.60089
1862.00000,139.57069
1864.00000,168.11783
1866.00000,118.94637
1868.00000,143.18932
1870.00000,226.71056
1872.00000,210.01683
1874.00000,115.23232
1876.00000,225.54306
1878.00000,164.84564
1880.00000,155.24490
1882.00000,288.12372
1884.00000,160.14366
1886.00000,123.80008
1888.00000,121.08155
1890.00000,75.52261
1892.00000,109.10717
1894.00000,254.34457
1896.00000,149.50813
1898.00000,106.49274
1900.00000,257.80621
1902.00000,194.90913
1904.00000,179.93176
1906.00000,178.78140
1908.00000,140.66611
1910.00000,141.50368
1912.00000,191.22624
1914.00000,108.90269
1916.00000,84.90356
1918.00000,168.06537
1920.00000,138.26434
1922.00000,221.59898
1924.00000,155.46457
1926.00000,93.67189
1928.00000,244.70747
1930.00000,156.57953
1932.00000,62.57973
1934.00000,136.23305
1936.00000,173.45164
1938.00000,24.26764
1940.00000,194.22139
1942.00000,170.14980
1944.00000,23.93990
1946.00000,122.47990
1948.00000,83.82797
1950.00000,112.22977
1952.00000,152.81491
1954.00000,136.59753
1956.00000,152.49191
1958.00000,98.15946
1960.00000,179.09666
1962.00000,286.01169
1964.00000,212.90495
1966.00000,164.40004
1968.00000,256.13434
1970.00000,230.98099
1972.00000,147.52451
1974.00000,278.77686
1976.00000,179.18658
1978.00000,107.42984
1980.00000,170.47005
1982.00000,205.45419
1984.00000,185.34265
1986.00000,118.74281
1988.00000,106.96060
1990.00000,108.68869
1992.00000,45.16054
1994.00000,141.64490
1996.00000,128.71657
1998.00000,46.73820
2000.00000,70.94154
2002.00000,78.66417
2004.00000,98.78601
2006.00000,112.59189
2008.00000,107.37724
2010.00000,104.29741
2012.00000,103.37246
2014.00000,111.16644
2016.00000,130.18422
2018.00000,124.94091
2020.00000,132.74533
2022.00000,145.94830
2024.00000,143.73192
2026.00000,155.58974
2028.00000,165.87845
2030.00000,156.30806
2032.00000,154.41306
2034.00000,188.59082
2036.00000,187.48483
2038.00000,172.71944
2040.00000,174.71216
2042.00000,179.69095
2044.00000,163.99973
2046.00000,173.76337
2048.00000,183.72166
2050.00000,168.67361
2052.00000,171.97400
2054.00000,209.67403
2056.00000,194.73128
2058.00000,163.52661
2060.00000,197.58801
2062.00000,186.32318
2064.00000,199.45760
2066.00000,223.90152
2068.00000,210.26920
2070.00000,201.50609
2072.00000,216.57382
2074.00000,227.07454
2076.00000,216.10210
2078.00000,215.15544
2080.00000,260.97397
2082.00000,249.22176
2084.00000,204.84917
2086.00000,218.35970
2088.00000,246.40636
2090.00000,234.28917
2092.00000,201.61691
2094.00000,189.74847
2096.00000,201.90306
2098.00000,208.88350
2100.00000,193.84204
2102.00000,184.15280
2104.00000,206.44591
2106.00000,223.82312
2108.00000,208.06340
2110.00000,193.64261
2112.00000,199.53217
2114.00000,192.15218
2116.00000,197.69637
2118.00000,202.33461
2120.00000,207.01845
2122.00000,217.61597
2124.00000,186.26440
2126.00000,177.20369
2128.00000,190.71913
2130.00000,195.70122
2132.00000,213.75887
2134.00000,206.08261
2136.00000,190.02290
2138.00000,197.51971
2140.00000,219.35063
2142.00000,219.59557
2144.00000,208.58582
2146.00000,211.96626
2148.00000,227.37544
2150.00000,223.01483
2152.00000,222.91566
2154.00000,221.88078
2156.00000,208.89830
2158.00000,197.92007
2160.00000,192.30643
2162.00000,187.38527
2164.00000,198.23045
2166.00000,223.29185
2168.00000,207.34779
2170.00000,200.05960
2172.00000,215.67786
2174.00000,228.65840
2176.00000,230.47000
2178.00000,225.23329
2180.00000,216.11369
2182.00000,200.11040
2184.00000,175.76352
2186.00000,160.09354
2188.00000,185.53493
2190.00000,197.64079
2192.00000,164.83150
2194.00000,178.55830
2196.00000,200.11606
2198.00000,200.99199
2200.00000,184.67227
2202.00000,171.71051
2204.00000,193.33827
2206.00000,184.15169
2208.00000,170.47479
2210.00000,209.67836
2212.00000,220.02075
2214.00000,226.63649
2216.00000,242.99831
2218.00000,239.34045
2220.00000,207.84895
2222.00000,236.43709
2224.00000,240.81244
2226.00000,199.45595
2228.00000,203.42737
2230.00000,239.46725
2232.00000,224.08473
2234.00000,220.42717
2236.00000,271.60867
2238.00000,251.15930
2240.00000,213.48267
2242.00000,220.80550
2244.00000,249.38338
2246.00000,228.31331
2248.00000,174.74751
2250.00000,209.15105
2252.00000,238.10806
2254.00000,165.64732
2256.00000,185.63573
2258.00000,204.19498
2260.00000,159.23444
2262.00000,133.49303
2264.00000,204.01726
2266.00000,198.00092
2268.00000,175.04672
2270.00000,190.64116
2272.00000,194.20735
2274.00000,172.63672
2276.00000,162.12810
2278.00000,176.09888
2280.00000,188.13194
2282.00000,170.54257
2284.00000,159.23836
2286.00000,172.97543
2288.00000,174.90611
2290.00000,145.17729
2292.00000,170.05173
2294.00000,170.20009
2296.00000,153.27582
2298.00000,154.96129
2300.00000,111.41448
2302.00000,130.33218
2304.00000,150.75157
2306.00000,128.19334
2308.00000,139.62932
2310.00000,151.26117
2312.00000,182.10774
2314.00000,178.38474
2316.00000,132.94290
2318.00000,208.11252
2320.00000,198.83524
2322.00000,138.23314
2324.00000,154.74620
2326.00000,186.98422
2328.00000,162.26181
2330.00000,171.36577
2332.00000,209.95047
2334.00000,180.33148
2336.00000,149.28224
2338.00000,161.31065
2340.00000,171.36440
2342.00000,150.41704
2344.00000,153.56541
2346.00000,152.81682
2348.00000,169.94330
2350.00000,178.16884
2352.00000,128.49867
2354.00000,133.25179
2356.00000,166.25108
2358.00000,168.13858
2360.00000,147.60304
2362.00000,164.94664
2364.00000,181.11952
2366.00000,179.92488
2368.00000,161.59032
2370.00000,128.25314
2372.00000,129.22841
2374.00000,146.79285
2376.00000,149.61349
2378.00000,135.84052
2380.00000,124.19745
2382.00000,124.18857
2384.00000,141.00500
2386.00000,151.72748
2388.00000,129.24069
2390.00000,147.56721
2392.00000,162.13522
2394.00000,157.61522
2396.00000,178.16246
2398.00000,176.80701
2400.00000,177.11893
2402.00000,176.69383
2404.00000,152.92836
2406.00000,130.39131
2408.00000,155.93309
2410.00000,172.33931
2412.00000,150.17696
2414.00000,140.56705
2416.00000,131.46748
2418.00000,148.76292
2420.00000,159.93750
2422.00000,129.92989
2424.00000,129.21045
2426.00000,142.48247
2428.00000,117.33313
2430.00000,81.30805
2432.00000,118.71185
2434.00000,141.17612
2436.00000,119.01334
2438.00000,83.68934
2440.00000,72.11573
2442.00000,89.04576
2444.00000,108.41849
2446.00000,118.66093
2448.00000,124.35696
2450.00000,118.73219
2452.00000,72.85183
2454.00000,68.67917
2456.00000,114.31483
2458.00000,107.46067
2460.00000,62.68041
2462.00000,73.43594
2464.00000,103.97396
2466.00000,80.00732
2468.00000,69.05405
2470.00000,91.83662
2472.00000,103.71133
2474.00000,70.86732
2476.00000,28.46714
2478.00000,45.65753
2480.00000,87.78439
2482.00000,83.59165
2484.00000,36.01958
2486.00000,46.61481
2488.00000,80.56094
2490.00000,81.85626
2492.00000,67.79620
2494.00000,104.32277
2496.00000,142.37383
2498.00000,78.60813
2500.00000,24.42680
2502.00000,121.94649
2504.00000,103.40388
2506.00000,76.41767
2508.00000,121.00665
2510.00000,141.48401
2512.00000,69.27378
2514.00000,119.59286
2516.00000,186.41100
2518.00000,145.13402
2520.00000,100.63332
2522.00000,114.47353
2524.00000,156.10666
2526.00000,147.89156
2528.00000,88.95065
2530.00000,102.62562
2532.00000,135.28302
2534.00000,121.91797
2536.00000,93.27416
2538.00000,123.87143
2540.00000,148.60478
2542.00000,146.46191
2544.00000,134.45097
2546.00000,115.93383
2548.00000,82.19873
2550.00000,143.38632
2552.00000,218.38968
2554.00000,188.46675
2556.00000,137.88292
2558.00000,147.74272
2560.00000,149.76671
2562.00000,130.59834
2564.00000,166.48424
2566.00000,193.37531
2568.00000,147.52435
2570.00000,98.67941
2572.00000,119.90090
2574.00000,133.41853
2576.00000,145.50450
2578.00000,132.89561
2580.00000,117.10933
2582.00000,155.80933
2584.00000,150.81268
2586.00000,132.53723
2588.00000,131.04732
2590.00000,131.54967
2592.00000,148.98364
2594.00000,165.80637
2596.00000,160.97769
2598.00000,143.49930
2600.00000,141.75302
2602.00000,136.33755
2604.00000,144.00587
2606.00000,187.08542
2608.00000,220.11368
2610.00000,144.55324
2612.00000,158.18311
2614.00000,181.57207
2616.00000,115.61044
2618.00000,175.14964
2620.00000,118.19362
2622.00000,87.68944
2624.00000,167.69539
2626.00000,139.91904
2628.00000,64.60693
2630.00000,67.06579
2632.00000,131.01787
2634.00000,139.46446
2636.00000,83.16702
2638.00000,156.23514
2640.00000,163.24451
2642.00000,40.75016
2644.00000,101.35940
2646.00000,136.88319
2648.00000,75.98655
2650.00000,58.38435
2652.00000,145.12234
2654.00000,104.85847
2656.00000,88.07506
2658.00000,117.75696
2660.00000,90.80965
2662.00000,39.32257
2664.00000,89.73312
2666.00000,105.78700
2668.00000,65.55885
2670.00000,102.52699
2672.00000,62.96852
2674.00000,30.89527
2676.00000,92.15965
2678.00000,142.49820
2680.00000,22.42867
2682.00000,35.28795
2684.00000,104.93167
2686.00000,71.95998
2688.00000,41.05304
2690.00000,74.23422
2692.00000,100.45615
2694.00000,86.32491
2696.00000,78.07238
2698.00000,93.58449
2700.00000,61.59176
2702.00000,4.17765
2704.00000,30.25648
2706.00000,151.43263
2708.00000,98.00863
2710.00000,40.19236
2712.00000,47.23137
2714.00000,-1.63594
2716.00000,82.16220
2718.00000,112.05968
2720.00000,67.87878
2722.00000,57.40625
2724.00000,39.04112
2726.00000,69.90434
2728.00000,52.56608
2730.00000,8.50483
2732.00000,86.32981
2734.00000,111.06303
2736.00000,39.11048
2738.00000,46.57302
2740.00000,157.02245
2742.00000,51.05320
2744.00000,85.32806
2746.00000,152.19632
2748.00000,85.22128
2750.00000,109.78759
2752.00000,163.25648
2754.00000,90.33742
2756.00000,30.64139
2758.00000,150.28903
2760.00000,116.53308
2762.00000,6.02532
2764.00000,37.18890
2766.00000,139.91870
2768.00000,31.53488
2770.00000,88.58750
2772.00000,160.27228
2774.00000,68.33766
2776.00000,-2.10705
2778.00000,67.89379
2780.00000,29.80577
2782.00000,39.15191
2784.00000,202.80301
2786.00000,43.52203
2788.00000,19.55606
2790.00000,120.73060
2792.00000,100.70963
2794.00000,15.38828
2796.00000,36.03149
2798.00000,50.91720
2800.00000,54.68958
2802.00000,112.52222
2804.00000,60.89580
2806.00000,-8.87487
2808.00000,32.74459
2810.00000,99.00595
2812.00000,11.46746
2814.00000,71.15065
2816.00000,111.21281
2818.00000,28.62061
2820.00000,-0.55919
2822.00000,17.03654
2824.00000,9.39390
2826.00000,42.13374
2828.00000,104.63192
2830.00000,13.91267
2832.00000,38.77330
2834.00000,61.39845
2836.00000,-4.64068
2838.00000,38.71569
2840.00000,152.26184
2842.00000,89.40073
2844.00000,45.10031
2846.00000,213.40079
2848.00000,163.38292
2850.00000,185.21222
2852.00000,272.22220
2854.00000,270.50763
2856.00000,273.93909
2858.00000,367.15491
2860.00000,364.05600
2862.00000,334.44836
2864.00000,451.42276
2866.00000,422.54062
2868.00000,373.36996
2870.00000,470.70505
2872.00000,565.35358
2874.00000,400.48529
2876.00000,467.67392
2878.00000,518.65149
2880.00000,417.11072
2882.00000,474.62750
2884.00000,544.37939
2886.00000,528.24390
2888.00000,508.25314
2890.00000,540.15625
2892.00000,514.06409
2894.00000,562.75427
2896.00000,657.98676
2898.00000,691.94092
2900.00000,678.95081
2902.00000,740.01056
2904.00000,743.08539
2906.00000,766.50885
2908.00000,888.26056
2910.00000,765.37665
2912.00000,747.21112
2914.00000,864.90521
2916.00000,898.07117
2918.00000,854.35419
2920.00000,926.37341
2922.00000,967.64423
2924.00000,875.92847
2926.00000,823.98755
2928.00000,974.43585
2930.00000,971.25311
2932.00000,814.07385
2934.00000,782.91248
2936.00000,861.83368
2938.00000,745.39362
2940.00000,716.25952
2942.00000,863.61121
2944.00000,775.85638
2946.00000,498.37274
2948.00000,562.49036
2950.00000,652.59583
2952.00000,395.54047
2954.00000,545.56494
2956.00000,496.34628
2958.00000,384.78888
2960.00000,472.01624
2962.00000,391.41635
2964.00000,269.44040
2966.00000,295.62106
2968.00000,410.27722
2970.00000,407.71738
2972.00000,301.10352
2974.00000,342.83047
2976.00000,331.19971
2978.00000,187.23341
2980.00000,308.69226
2982.00000,270.48337
2984.00000,164.53819
2986.00000,206.90631
2988.00000,285.94601
2990.00000,204.51501
2992.00000,118.71735
2994.00000,80.27414
2996.00000,76.60837
2998.00000,199.01006
3000.00000,144.16714
3002.00000,48.71906
3004.00000,107.76891
3006.00000,164.74236
3008.00000,56.71837
3010.00000,68.43797
3012.00000,193.07487
3014.00000,148.56380
3016.00000,14.07489
3018.00000,55.98342
3020.00000,95.23738
3022.00000,5.27495
3024.00000,80.84180
3026.00000,242.86372
3028.00000,168.09006
3030.00000,24.27633
3032.00000,210.34155
3034.00000,366.21613
3036.00000,283.35928
3038.00000,283.11774
3040.00000,467.17145
3042.00000,359.66064
3044.00000,489.06641
3046.00000,604.50269
3048.00000,539.10907
3050.00000,624.69299
3052.00000,624.01453
3054.00000,765.55115
3056.00000,866.68146
3058.00000,758.17175
3060.00000,980.04340
3062.00000,926.78320
3064.00000,755.47101
3066.00000,787.88171
3068.00000,773.66919
3070.00000,771.35071
3072.00000,704.30334
3074.00000,551.56897
3076.00000,462.44772
3078.00000,539.62317
3080.00000,415.36496
3082.00000,301.27148
3084.00000,423.20486
3086.00000,387.47714
3088.00000,243.49210
3090.00000,232.19911
3092.00000,288.78754
3094.00000,186.97267
3096.00000,171.16417
3098.00000,236.28949
3100.00000,269.26492
3102.00000,212.09555
3104.00000,139.10199
3106.00000,277.76672
3108.00000,381.70782
3110.00000,266.81378
3112.00000,174.07097
3114.00000,234.01802
3116.00000,201.52980
3118.00000,121.24940
3120.00000,218.75316
3122.00000,301.02368
3124.00000,188.67520
3126.00000,125.97916
3128.00000,256.12094
3130.00000,276.22028
3132.00000,146.03825
3134.00000,159.77763
3136.00000,186.38266
3138.00000,24.12457
3140.00000,297.82745
3142.00000,292.29669
3144.00000,58.36589
3146.00000,70.45177
3148.00000,63.58048
3150.00000,83.44907
3152.00000,125.18295
3154.00000,116.68056
3156.00000,105.62852
3158.00000,294.15192
3160.00000,201.31693
3162.00000,0.92725
3164.00000,159.00421
3166.00000,269.58771
3168.00000,92.37498
3170.00000,69.31893
3172.00000,288.90244
3174.00000,190.13867
3176.00000,93.57587
3178.00000,217.55101
3180.00000,264.62982
3182.00000,45.66343
3184.00000,155.97864
3186.00000,211.91010
3188.00000,107.36430
3190.00000,110.95526
3192.00000,246.62553
3194.00000,118.80315
3196.00000,130.04831
3198.00000,359.40332
3200.00000,303.54626
