300.00000,12.49007
302.00000,11.60448
304.00000,14.77300
306.00000,24.64514
308.00000,34.12182
310.00000,36.44987
312.00000,37.86597
314.00000,51.13238
316.00000,56.94596
318.00000,57.66858
320.00000,64.47785
322.00000,60.41566
324.00000,56.87813
326.00000,50.68457
328.00000,43.24290
330.00000,44.49689
332.00000,36.48300
334.00000,24.69235
336.00000,14.87433
338.00000,14.32150
340.00000,35.28704
342.00000,45.54624
344.00000,41.95177
346.00000,45.96685
348.00000,67.79659
350.00000,87.37778
352.00000,102.66856
354.00000,117.09141
356.00000,131.57658
358.00000,143.93225
360.00000,142.21327
362.00000,129.36259
364.00000,106.11274
366.00000,72.08845
368.00000,52.26726
370.00000,49.28121
372.00000,50.37434
374.00000,45.48183
376.00000,38.31709
378.00000,38.50148
380.00000,41.37215
382.00000,34.58099
384.00000,19.96714
386.00000,25.03011
388.00000,43.42744
390.00000,65.01697
392.00000,90.61009
394.00000,121.31306
396.00000,142.53871
398.00000,167.38791
400.00000,203.10179
402.00000,237.51201
404.00000,267.89554
406.00000,288.00833
408.00000,317.72726
410.00000,369.16266
412.00000,422.49857
414.00000,495.43918
416.00000,579.83350
418.00000,660.86298
420.00000,739.68573
422.00000,829.69092
424.00000,955.11798
426.00000,1104.42200
428.00000,1237.96765
430.00000,1343.58948
432.00000,1488.26270
434.00000,1657.21606
436.00000,1805.62952
438.00000,1929.47949
440.00000,2060.45215
442.00000,2175.35376
444.00000,2248.44067
446.00000,2274.69751
448.00000,2261.40698
450.00000,2212.74243
452.00000,2120.93164
454.00000,1988.66028
456.00000,1832.02454
458.00000,1661.23438
460.00000,1483.58496
462.00000,1307.30505
464.00000,1137.47168
466.00000,972.82520
468.00000,813.45221
470.00000,675.21094
472.00000,563.89447
474.00000,462.79758
476.00000,358.07260
478.00000,296.62735
480.00000,256.85666
482.00000,199.61531
484.00000,147.28436
486.00000,127.34270
488.00000,118.56429
490.00000,97.74347
492.00000,69.58649
494.00000,52.79245
496.00000,51.53089
498.00000,50.87520
500.00000,43.72864
502.00000,39.62619
504.00000,29.87083
506.00000,18.04938
508.00000,14.96448
510.00000,23.43877
512.00000,30.53249
514.00000,24.86176
516.00000,16.42972
518.00000,20.58332
520.00000,32.75142
522.00000,27.82883
524.00000,26.68199
526.00000,28.30990
528.00000,19.16453
530.00000,25.38106
532.00000,25.09506
534.00000,21.92595
536.00000,22.57116
538.00000,14.56224
540.00000,11.87903
542.00000,25.14500
544.00000,49.76829
546.00000,70.09613
548.00000,73.91991
550.00000,69.43800
552.00000,74.52509
554.00000,90.02380
556.00000,101.13071
558.00000,117.19004
560.00000,143.87531
562.00000,168.59764
564.00000,184.74686
566.00000,213.54344
568.00000,250.72327
570.00000,296.52930
572.00000,344.42624
574.00000,381.94928
576.00000,425.57553
578.00000,485.44839
580.00000,557.39856
582.00000,631.30853
584.00000,702.87714
586.00000,775.47400
588.00000,862.39246
590.00000,962.29675
592.00000,1061.19641
594.00000,1171.69373
596.00000,1301.02563
598.00000,1420.67932
600.00000,1509.95996
602.00000,1600.28516
604.00000,1693.29736
606.00000,1750.13879
608.00000,1775.30347
610.00000,1808.07324
612.00000,1802.52698
614.00000,1757.38220
616.00000,1702.63513
618.00000,1645.42004
620.00000,1550.44568
622.00000,1414.21521
624.00000,1251.45972
626.00000,1093.60693
628.00000,964.90607
630.00000,843.33167
632.00000,724.65625
634.00000,613.58673
636.00000,522.38837
638.00000,465.29480
640.00000,420.10040
642.00000,384.14728
644.00000,351.25842
646.00000,305.50494
648.00000,257.63330
650.00000,218.86009
652.00000,189.35056
654.00000,157.70374
656.00000,118.26638
658.00000,102.44166
660.00000,92.23878
662.00000,79.30029
664.00000,83.26720
666.00000,89.02787
668.00000,88.92193
670.00000,89.59033
672.00000,90.75775
674.00000,78.95272
676.00000,69.93771
678.00000,66.81287
680.00000,67.72389
682.00000,71.28439
684.00000,67.24340
686.00000,56.67818
688.00000,49.91834
690.00000,51.25953
692.00000,52.29329
694.00000,52.01900
696.00000,56.87672
698.00000,66.88258
700.00000,70.87547
702.00000,58.86253
704.00000,44.65363
706.00000,46.19069
708.00000,58.43466
710.00000,61.00768
712.00000,74.50661
714.00000,70.25518
716.00000,42.86210
718.00000,28.63948
720.00000,35.16543
722.00000,40.25086
724.00000,29.18377
726.00000,10.84937
728.00000,5.94345
730.00000,14.24537
732.00000,27.95192
734.00000,32.87534
736.00000,25.41496
738.00000,27.23139
740.00000,28.64332
742.00000,25.66551
744.00000,22.14467
746.00000,17.86672
748.00000,15.62134
750.00000,23.97529
752.00000,31.19834
754.00000,21.58727
756.00000,13.98837
758.00000,18.41394
760.00000,24.71059
762.00000,20.88828
764.00000,10.32352
766.00000,6.36012
768.00000,24.44296
770.00000,40.65159
772.00000,29.99325
774.00000,28.90641
776.00000,31.04063
778.00000,35.03350
780.00000,49.57914
782.00000,67.55019
784.00000,55.26456
786.00000,36.45510
788.00000,30.64232
790.00000,36.37335
792.00000,57.63365
794.00000,60.92144
796.00000,65.59962
798.00000,94.76189
800.00000,121.34164
802.00000,116.05733
804.00000,82.30624
806.00000,51.12193
808.00000,41.84742
810.00000,33.51994
812.00000,25.55238
814.00000,25.42011
816.00000,32.15022
818.00000,36.81583
820.00000,42.39304
822.00000,62.21894
824.00000,80.94120
826.00000,79.27082
828.00000,75.85519
830.00000,65.41383
832.00000,49.98706
834.00000,41.21373
836.00000,43.64686
838.00000,45.10741
840.00000,57.86205
842.00000,67.96790
844.00000,60.81598
846.00000,64.76656
848.00000,60.55515
850.00000,40.82051
852.00000,25.97805
854.00000,35.85530
856.00000,48.36248
858.00000,40.68431
860.00000,23.96235
862.00000,24.65344
864.00000,38.77583
866.00000,26.20457
868.00000,24.09331
870.00000,46.56537
872.00000,46.39083
874.00000,35.16656
876.00000,20.57467
878.00000,22.64043
880.00000,41.60461
882.00000,34.74209
884.00000,15.48503
886.00000,6.84889
888.00000,15.12997
890.00000,26.94453
892.00000,26.04507
894.00000,31.62737
896.00000,36.35699
898.00000,31.69024
900.00000,45.43035
902.00000,56.89327
904.00000,57.66706
906.00000,50.13999
908.00000,46.16930
910.00000,70.96775
912.00000,64.67036
914.00000,43.01665
916.00000,52.95132
918.00000,61.62212
920.00000,50.90307
922.00000,29.27350
924.00000,21.97535
926.00000,38.77834
928.00000,45.57654
930.00000,39.94931
932.00000,26.97725
934.00000,14.11432
936.00000,13.53990
938.00000,16.94801
940.00000,16.33803
942.00000,16.31490
944.00000,21.25336
946.00000,18.53177
948.00000,32.41978
950.00000,40.23460
952.00000,23.57233
954.00000,24.73628
956.00000,37.41755
958.00000,36.81025
960.00000,26.61168
962.00000,25.94017
964.00000,19.97838
966.00000,20.05559
968.00000,21.48313
970.00000,17.67950
972.00000,21.79764
974.00000,28.96772
976.00000,36.75624
978.00000,37.52435
980.00000,31.99455
982.00000,48.54047
984.00000,72.41476
986.00000,87.83565
988.00000,105.05033
990.00000,150.19521
992.00000,223.15318
994.00000,305.74695
996.00000,424.88394
998.00000,598.67456
1000.00000,724.50403
1002.00000,723.69019
1004.00000,603.40686
1006.00000,430.51279
1008.00000,274.99011
1010.00000,171.40903
1012.00000,120.35370
1014.00000,99.31325
1016.00000,89.27072
1018.00000,94.99110
1020.00000,102.09857
1022.00000,108.51981
1024.00000,125.87756
1026.00000,159.37206
1028.00000,191.68083
1030.00000,209.50865
1032.00000,204.58481
1034.00000,179.84067
1036.00000,154.08548
1038.00000,128.01535
1040.00000,98.50426
1042.00000,74.65874
1044.00000,67.92487
1046.00000,57.58473
1048.00000,47.44359
1050.00000,50.49435
1052.00000,63.87073
1054.00000,64.87201
1056.00000,49.87977
1058.00000,78.96240
1060.00000,134.65771
1062.00000,122.57215
1064.00000,136.21466
1066.00000,146.82742
1068.00000,146.58672
1070.00000,162.76059
1072.00000,154.46265
1074.00000,150.48824
1076.00000,161.63774
1078.00000,189.11543
1080.00000,247.36475
1082.00000,332.49109
1084.00000,429.76706
1086.00000,509.75610
1088.00000,524.30298
1090.00000,438.82278
1092.00000,336.48389
1094.00000,274.99469
1096.00000,244.02786
1098.00000,203.98338
1100.00000,154.95612
1102.00000,132.90179
1104.00000,129.94458
1106.00000,114.57359
1108.00000,96.08223
1110.00000,76.03487
1112.00000,73.52296
1114.00000,88.09196
1116.00000,86.75902
1118.00000,61.95788
1120.00000,58.45256
1122.00000,67.70998
1124.00000,54.12450
1126.00000,39.62523
1128.00000,38.03719
1130.00000,24.67490
1132.00000,0.04735
1134.00000,0.32171
1136.00000,12.84762
1138.00000,11.74988
1140.00000,6.92523
1142.00000,15.16060
1144.00000,19.59878
1146.00000,29.51517
1148.00000,46.21367
1150.00000,68.04106
1152.00000,104.85322
1154.00000,169.37062
1156.00000,221.40596
1158.00000,230.98283
1160.00000,210.88426
1162.00000,189.65396
1164.00000,148.44217
1166.00000,136.61192
1168.00000,146.49179
1170.00000,119.70509
1172.00000,128.12570
1174.00000,121.26410
1176.00000,99.64574
1178.00000,105.46065
1180.00000,119.22479
1182.00000,126.09836
1184.00000,116.00089
1186.00000,98.67731
1188.00000,91.61047
1190.00000,83.83876
1192.00000,74.56953
1194.00000,83.50572
1196.00000,105.08370
1198.00000,101.12443
1200.00000,113.59219
1202.00000,111.57479
1204.00000,89.47073
1206.00000,80.76740
1208.00000,46.71802
1210.00000,40.56971
1212.00000,46.26292
1214.00000,25.49141
1216.00000,13.31093
1218.00000,4.79865
1220.00000,4.04002
1222.00000,16.10376
1224.00000,29.40605
1226.00000,24.67754
1228.00000,25.17789
1230.00000,33.48518
1232.00000,36.31992
1234.00000,40.48260
1236.00000,66.70794
1238.00000,104.29108
1240.00000,151.43715
1242.00000,209.12665
1244.00000,240.54688
1246.00000,272.95328
1248.00000,306.05170
1250.00000,334.26697
1252.00000,396.20969
1254.00000,517.01807
1256.00000,622.20642
1258.00000,738.14545
1260.00000,917.73730
1262.00000,994.26270
1264.00000,970.77435
1266.00000,865.07062
1268.00000,690.88647
1270.00000,500.66003
1272.00000,336.43845
1274.00000,231.64850
1276.00000,168.40012
1278.00000,112.33958
1280.00000,84.83547
1282.00000,70.72833
1284.00000,68.39072
1286.00000,85.22113
1288.00000,116.39379
1290.00000,156.18860
1292.00000,182.18402
1294.00000,205.13254
1296.00000,243.80109
1298.00000,263.15973
1300.00000,266.26208
1302.00000,270.97388
1304.00000,267.98663
1306.00000,249.35391
1308.00000,301.37198
1310.00000,363.47693
1312.00000,425.92957
1314.00000,549.59174
1316.00000,718.17175
1318.00000,955.98523
1320.00000,1203.50732
1322.00000,1418.03906
1324.00000,1621.55750
1326.00000,1733.10291
1328.00000,1769.63489
1330.00000,1763.05627
1332.00000,1706.97571
1334.00000,1598.18384
1336.00000,1481.31799
1338.00000,1298.62805
1340.00000,1068.88916
1342.00000,927.36816
1344.00000,814.75824
1346.00000,772.46765
1348.00000,809.79669
1350.00000,846.34045
1352.00000,811.16180
1354.00000,743.68329
1356.00000,646.83490
1358.00000,514.83252
1360.00000,393.42038
1362.00000,334.37598
1364.00000,240.02562
1366.00000,165.71213
1368.00000,174.00787
1370.00000,90.03917
1372.00000,63.48644
1374.00000,60.47948
1376.00000,30.78125
1378.00000,44.62637
1380.00000,27.30343
1382.00000,14.65085
1384.00000,38.78857
1386.00000,71.37154
1388.00000,73.58299
1390.00000,50.75045
1392.00000,87.83891
1394.00000,162.95154
1396.00000,178.54427
1398.00000,256.03833
1400.00000,306.48907
1402.00000,325.01053
1404.00000,362.77722
1406.00000,337.14120
1408.00000,264.22778
1410.00000,188.45547
1412.00000,133.99820
1414.00000,97.82368
1416.00000,73.27129
1418.00000,80.53660
1420.00000,89.66404
1422.00000,67.53242
1424.00000,50.62730
1426.00000,49.50488
1428.00000,55.99766
1430.00000,60.08160
1432.00000,64.68042
1434.00000,88.65530
1436.00000,125.60911
1438.00000,145.58482
1440.00000,141.50426
1442.00000,147.64131
1444.00000,152.37360
1446.00000,153.35965
1448.00000,153.75807
1450.00000,152.74582
1452.00000,154.06905
1454.00000,153.58163
1456.00000,144.28561
1458.00000,123.27890
1460.00000,98.30505
1462.00000,88.89021
1464.00000,82.82666
1466.00000,72.90622
1468.00000,64.29050
1470.00000,40.47709
1472.00000,22.45241
1474.00000,20.61693
1476.00000,33.23779
1478.00000,59.29427
1480.00000,71.54570
1482.00000,86.33183
1484.00000,127.65027
1486.00000,185.54953
1488.00000,226.21863
1490.00000,265.06915
1492.00000,273.17993
1494.00000,253.82370
1496.00000,283.35349
1498.00000,301.10690
1500.00000,314.22324
1502.00000,334.16278
1504.00000,347.37460
1506.00000,371.04440
1508.00000,351.06534
1510.00000,356.90274
1512.00000,391.77646
1514.00000,311.88116
1516.00000,281.49811
1518.00000,206.12674
1520.00000,112.14106
1522.00000,129.81595
1524.00000,74.15024
1526.00000,55.87863
1528.00000,61.17093
1530.00000,34.55978
1532.00000,47.05530
1534.00000,36.85703
1536.00000,33.42829
1538.00000,38.27230
1540.00000,35.48666
1542.00000,94.49821
1544.00000,61.10262
1546.00000,34.54870
1548.00000,87.00507
1550.00000,51.44594
1552.00000,64.11519
1554.00000,54.90010
1556.00000,20.93423
1558.00000,41.49836
1560.00000,22.00401
1562.00000,13.45924
1564.00000,32.57531
1566.00000,48.73464
1568.00000,64.56974
1570.00000,128.72508
1572.00000,179.81468
1574.00000,209.50775
1576.00000,282.27051
1578.00000,388.47849
1580.00000,441.96829
1582.00000,553.82214
1584.00000,764.01147
1586.00000,908.96539
1588.00000,1040.84656
1590.00000,1150.96863
1592.00000,1246.20654
1594.00000,1299.75940
1596.00000,1198.68982
1598.00000,1170.07043
1600.00000,1135.74475
1602.00000,992.85944
1604.00000,876.57452
1606.00000,750.24274
1608.00000,590.97064
1610.00000,446.61847
1612.00000,359.14279
1614.00000,287.33780
1616.00000,236.69025
1618.00000,185.87819
1620.00000,133.53947
1622.00000,110.56599
1624.00000,85.96602
1626.00000,84.31241
1628.00000,70.71276
1630.00000,29.00506
1632.00000,57.06522
1634.00000,33.94884
1636.00000,25.96721
1638.00000,70.24453
1640.00000,50.37687
1642.00000,24.07248
1644.00000,13.50210
1646.00000,20.48930
1648.00000,35.04023
1650.00000,31.60227
1652.00000,40.32475
1654.00000,39.29369
1656.00000,36.04305
1658.00000,74.17449
1660.00000,87.78342
1662.00000,81.41844
1664.00000,102.72468
1666.00000,140.04021
1668.00000,113.53613
1670.00000,109.34243
1672.00000,111.50972
1674.00000,78.99247
1676.00000,42.68261
1678.00000,37.65422
1680.00000,69.16179
1682.00000,72.89896
1684.00000,32.92730
1686.00000,42.87778
1688.00000,18.91481
1690.00000,7.87697
1692.00000,36.01130
1694.00000,36.26576
1696.00000,41.61818
1698.00000,47.60509
1700.00000,44.64408
1702.00000,41.23911
1704.00000,54.05240
1706.00000,84.41445
1708.00000,69.19820
1710.00000,43.51522
1712.00000,93.09506
1714.00000,99.08662
1716.00000,80.84640
1718.00000,78.16248
1720.00000,70.56030
1722.00000,41.45060
1724.00000,117.54997
1726.00000,150.25252
1728.00000,85.89319
1730.00000,66.88956
1732.00000,57.26546
1734.00000,122.50439
1736.00000,111.23126
1738.00000,20.10325
1740.00000,150.40732
1742.00000,78.43340
1744.00000,50.15282
1746.00000,126.28201
1748.00000,29.51904
1750.00000,94.83490
1752.00000,85.26614
1754.00000,33.47482
1756.00000,82.46124
1758.00000,65.57876
1760.00000,61.66293
1762.00000,39.57074
1764.00000,28.76478
1766.00000,90.05144
1768.00000,71.84116
1770.00000,77.46672
1772.00000,70.19183
1774.00000,6.13291
1776.00000,19.16951
1778.00000,43.56902
1780.00000,20.79352
1782.00000,3.38689
1784.00000,40.98423
1786.00000,28.83075
1788.00000,39.04104
1790.00000,68.68130
1792.00000,65.04111
1794.00000,54.61886
1796.00000,82.00348
1798.00000,84.32554
1800.00000,75.62883
1802.00000,108.20869
1804.00000,82.22946
1806.00000,65.11264
1808.00000,91.91011
1810.00000,105.16408
1812.00000,63.84620
1814.00000,82.38444
1816.00000,91.00998
1818.00000,60.72438
1820.00000,58.89852
1822.00000,67.11438
1824.00000,53.58548
1826.00000,76.23689
1828.00000,100.72472
1830.00000,19.76431
1832.00000,74.32994
1834.00000,85.35999
1836.00000,54.36566
1838.00000,132.18706
1840.00000,88.37648
1842.00000,29.62458
1844.00000,62.08564
1846.00000,108.92334
1848.00000,64.31760
1850.00000,109.94083
1852.00000,86.79781
1854.00000,23.32119
1856.00000,75.79974
1858.00000,58.16879
1860.00000,27.17352
1862.00000,79.36904
1864.00000,118.98330
1866.00000,15.89635
1868.00000,75.51377
1870.00000,81.01738
1872.00000,23.37811
1874.00000,86.31037
1876.00000,83.91217
1878.00000,71.72009
1880.00000,75.64542
1882.00000,63.16638
1884.00000,47.90228
1886.00000,107.15645
1888.00000,126.69642
1890.00000,110.08423
1892.00000,130.34160
1894.00000,103.47406
1896.00000,108.79315
1898.00000,143.76294
1900.00000,132.39317
1902.00000,77.30250
1904.00000,121.58157
1906.00000,103.79724
1908.00000,65.00710
1910.00000,125.03197
1912.00000,101.49332
1914.00000,90.52555
1916.00000,109.12407
1918.00000,97.38368
1920.00000,63.94962
1922.00000,101.87325
1924.00000,91.92846
1926.00000,71.87318
1928.00000,124.82119
1930.00000,100.00301
1932.00000,36.49359
1934.00000,70.66882
1936.00000,153.39012
1938.00000,109.45268
1940.00000,71.46214
1942.00000,136.01796
1944.00000,159.74637
1946.00000,69.67978
1948.00000,98.28729
1950.00000,112.51009
1952.00000,92.53716
1954.00000,89.78874
1956.00000,95.92186
1958.00000,97.13913
1960.00000,114.28186
1962.00000,137.81705
1964.00000,127.28847
1966.00000,71.75867
1968.00000,44.12408
1970.00000,99.07938
1972.00000,149.67352
1974.00000,97.21602
1976.00000,105.11753
1978.00000,125.75627
1980.00000,88.21831
1982.00000,46.82809
1984.00000,93.05209
1986.00000,61.17131
1988.00000,-1.67062
1990.00000,17.12842
1992.00000,70.94684
1994.00000,13.67405
1996.00000,33.68362
1998.00000,92.77942
2000.00000,36.67693
2002.00000,39.08979
2004.00000,37.94511
2006.00000,35.57791
2008.00000,30.93038
2010.00000,28.32524
2012.00000,33.06403
2014.00000,45.24493
2016.00000,52.37516
2018.00000,37.08689
2020.00000,36.86542
2022.00000,49.28412
2024.00000,50.13782
2026.00000,49.60960
2028.00000,54.93092
2030.00000,50.94604
2032.00000,46.94954
2034.00000,62.36755
2036.00000,51.26974
2038.00000,39.75414
2040.00000,53.70910
2042.00000,70.48006
2044.00000,48.66531
2046.00000,26.17465
2048.00000,35.64940
2050.00000,63.28604
2052.00000,67.51101
2054.00000,45.76751
2056.00000,49.72121
2058.00000,70.84167
2060.00000,56.61396
2062.00000,29.22589
2064.00000,39.21765
2066.00000,58.88860
2068.00000,54.88457
2070.00000,58.48917
2072.00000,56.78585
2074.00000,43.07717
2076.00000,35.39931
2078.00000,47.92620
2080.00000,51.64152
2082.00000,51.48727
2084.00000,47.54969
2086.00000,39.47599
2088.00000,45.10272
2090.00000,56.02889
2092.00000,58.95030
2094.00000,52.65947
2096.00000,46.27549
2098.00000,41.25620
2100.00000,40.06919
2102.00000,50.29244
2104.00000,65.31526
2106.00000,56.34179
2108.00000,45.04604
2110.00000,37.10130
2112.00000,33.94810
2114.00000,47.13122
2116.00000,52.74254
2118.00000,47.38432
2120.00000,48.71835
2122.00000,63.95892
2124.00000,65.33348
2126.00000,53.44823
2128.00000,67.70029
2130.00000,85.38114
2132.00000,23.29035
2134.00000,22.98941
2136.00000,60.18690
2138.00000,58.44884
2140.00000,35.43498
2142.00000,42.51504
2144.00000,59.96017
2146.00000,62.65240
2148.00000,50.40482
2150.00000,36.78784
2152.00000,50.39501
2154.00000,66.43933
2156.00000,56.27420
2158.00000,38.34220
2160.00000,42.99890
2162.00000,48.94389
2164.00000,51.69641
2166.00000,60.96450
2168.00000,50.88039
2170.00000,53.95030
2172.00000,52.94701
2174.00000,36.15841
2176.00000,47.47733
2178.00000,57.85883
2180.00000,60.89466
2182.00000,58.99433
2184.00000,49.33384
2186.00000,45.59517
2188.00000,65.34924
2190.00000,75.99423
2192.00000,66.06917
2194.00000,93.92615
2196.00000,101.83652
2198.00000,70.58054
2200.00000,45.67830
2202.00000,62.33507
2204.00000,59.16805
2206.00000,46.68458
2208.00000,41.83253
2210.00000,39.43366
2212.00000,42.03576
2214.00000,48.04229
2216.00000,49.20323
2218.00000,40.19416
2220.00000,30.15855
2222.00000,38.90128
2224.00000,34.96943
2226.00000,28.01215
2228.00000,55.08358
2230.00000,70.31168
2232.00000,42.10008
2234.00000,36.86478
2236.00000,70.06878
2238.00000,35.00371
2240.00000,26.13148
2242.00000,56.52478
2244.00000,68.13824
2246.00000,38.75005
2248.00000,28.08057
2250.00000,37.68056
2252.00000,45.33125
2254.00000,44.72523
2256.00000,47.66523
2258.00000,46.86189
2260.00000,48.19833
2262.00000,52.66821
2264.00000,50.36124
2266.00000,56.27649
2268.00000,59.81684
2270.00000,53.52776
2272.00000,46.88779
2274.00000,48.66792
2276.00000,51.31471
2278.00000,50.01416
2280.00000,43.29114
2282.00000,30.89067
2284.00000,25.71417
2286.00000,36.61890
2288.00000,47.01341
2290.00000,35.49866
2292.00000,23.17645
2294.00000,26.52000
2296.00000,26.94205
2298.00000,16.20946
2300.00000,32.45909
2302.00000,66.12010
2304.00000,54.24104
2306.00000,22.63876
2308.00000,56.57835
2310.00000,59.33793
2312.00000,41.76040
2314.00000,42.67705
2316.00000,58.64049
2318.00000,60.20808
2320.00000,43.62278
2322.00000,38.17108
2324.00000,52.96711
2326.00000,57.33160
2328.00000,50.74667
2330.00000,38.51145
2332.00000,44.01365
2334.00000,62.88658
2336.00000,25.22728
2338.00000,22.85390
2340.00000,46.29933
2342.00000,30.43270
2344.00000,10.05755
2346.00000,33.20072
2348.00000,52.81617
2350.00000,39.98263
2352.00000,36.99360
2354.00000,57.32497
2356.00000,53.71205
2358.00000,40.36290
2360.00000,54.05436
2362.00000,55.53057
2364.00000,31.79607
2366.00000,33.80635
2368.00000,57.42881
2370.00000,39.53498
2372.00000,52.72996
2374.00000,58.45258
2376.00000,32.47315
2378.00000,26.22133
2380.00000,70.81923
2382.00000,58.10086
2384.00000,40.48784
2386.00000,61.15147
2388.00000,25.27931
2390.00000,59.93292
2392.00000,64.82977
2394.00000,29.43917
2396.00000,67.01085
2398.00000,52.00836
2400.00000,26.07364
2402.00000,33.92144
2404.00000,58.76667
2406.00000,71.39326
2408.00000,52.12675
2410.00000,49.13300
2412.00000,65.28925
2414.00000,48.51814
2416.00000,51.37637
2418.00000,62.53019
2420.00000,61.19838
2422.00000,52.22434
2424.00000,47.60841
2426.00000,53.38372
2428.00000,67.96320
2430.00000,70.34798
2432.00000,47.62672
2434.00000,60.09565
2436.00000,56.74614
2438.00000,41.91600
2440.00000,68.44988
2442.00000,69.21893
2444.00000,67.43179
2446.00000,77.30019
2448.00000,83.05540
2450.00000,77.37499
2452.00000,68.80035
2454.00000,53.72865
2456.00000,54.33121
2458.00000,84.32292
2460.00000,64.24905
2462.00000,36.70998
2464.00000,56.06676
2466.00000,85.53012
2468.00000,40.23007
2470.00000,38.00404
2472.00000,70.01446
2474.00000,53.34465
2476.00000,4.41693
2478.00000,52.13260
2480.00000,64.42359
2482.00000,27.98413
2484.00000,53.18695
2486.00000,59.77401
2488.00000,23.65018
2490.00000,31.19155
2492.00000,83.76173
2494.00000,50.45069
2496.00000,31.11158
2498.00000,36.02387
2500.00000,34.00204
2502.00000,32.18714
2504.00000,45.31368
2506.00000,30.30110
2508.00000,25.01700
2510.00000,52.36434
2512.00000,29.85993
2514.00000,41.43676
2516.00000,62.03847
2518.00000,45.78690
2520.00000,28.46564
2522.00000,45.47509
2524.00000,65.12157
2526.00000,54.87058
2528.00000,28.63357
2530.00000,28.74722
2532.00000,32.22567
2534.00000,39.38126
2536.00000,50.76734
2538.00000,46.14816
2540.00000,47.73920
2542.00000,42.61578
2544.00000,36.15098
2546.00000,38.81643
2548.00000,13.13162
2550.00000,25.85293
2552.00000,59.90499
2554.00000,57.14529
2556.00000,38.52656
2558.00000,46.95159
2560.00000,61.50789
2562.00000,47.63915
2564.00000,25.12728
2566.00000,55.46484
2568.00000,32.63016
2570.00000,21.68467
2572.00000,90.68717
2574.00000,52.50933
2576.00000,22.64076
2578.00000,50.70244
2580.00000,71.02505
2582.00000,44.61378
2584.00000,69.06492
2586.00000,95.26852
2588.00000,72.05272
2590.00000,45.54044
2592.00000,81.08735
2594.00000,67.66537
2596.00000,66.28222
2598.00000,113.56561
2600.00000,71.76552
2602.00000,50.84974
2604.00000,59.10340
2606.00000,75.08483
2608.00000,84.26285
2610.00000,21.88708
2612.00000,56.80653
2614.00000,102.36299
2616.00000,37.96394
2618.00000,51.98999
2620.00000,98.88485
2622.00000,87.92849
2624.00000,49.05303
2626.00000,71.01120
2628.00000,72.22581
2630.00000,67.35139
2632.00000,68.76974
2634.00000,61.13029
2636.00000,57.52623
2638.00000,49.84330
2640.00000,40.56420
2642.00000,45.03325
2644.00000,65.34619
2646.00000,68.05328
2648.00000,93.25371
2650.00000,90.91608
2652.00000,21.11267
2654.00000,64.69867
2656.00000,91.48409
2658.00000,75.73273
2660.00000,89.43704
2662.00000,110.44294
2664.00000,101.90692
2666.00000,86.57279
2668.00000,84.54015
2670.00000,90.14279
2672.00000,111.91840
2674.00000,72.15772
2676.00000,56.40593
2678.00000,110.19641
2680.00000,36.43734
2682.00000,31.68814
2684.00000,90.72324
2686.00000,90.70200
2688.00000,52.21510
2690.00000,106.18526
2692.00000,66.07510
2694.00000,9.80710
2696.00000,118.69372
2698.00000,112.99162
2700.00000,73.40423
2702.00000,82.10234
2704.00000,109.48410
2706.00000,95.97426
2708.00000,31.01883
2710.00000,48.67491
2712.00000,95.92708
2714.00000,39.98572
2716.00000,94.33164
2718.00000,119.30161
2720.00000,70.19942
2722.00000,60.55808
2724.00000,115.90281
2726.00000,93.35561
2728.00000,67.20914
2730.00000,94.50337
2732.00000,81.72195
2734.00000,48.12852
2736.00000,86.30397
2738.00000,86.63680
2740.00000,11.00350
2742.00000,149.14166
2744.00000,146.79636
2746.00000,44.92870
2748.00000,69.45417
2750.00000,139.02893
2752.00000,58.04417
2754.00000,38.64061
2756.00000,122.04472
2758.00000,101.34235
2760.00000,32.83527
2762.00000,102.87518
2764.00000,125.47275
2766.00000,-1.33263
2768.00000,50.24755
2770.00000,140.16193
2772.00000,100.71309
2774.00000,57.90369
2776.00000,155.38921
2778.00000,40.51111
2780.00000,40.02284
2782.00000,144.40634
2784.00000,87.85594
2786.00000,18.59579
2788.00000,32.90096
2790.00000,56.38116
2792.00000,19.12498
2794.00000,-5.67439
2796.00000,84.11640
2798.00000,68.29523
2800.00000,1.22595
2802.00000,66.09846
2804.00000,36.01090
2806.00000,45.20251
2808.00000,69.45049
2810.00000,26.95681
2812.00000,15.51330
2814.00000,79.37763
2816.00000,52.42184
2818.00000,9.47344
2820.00000,112.04272
2822.00000,39.94851
2824.00000,21.01034
2826.00000,89.17083
2828.00000,84.17097
2830.00000,58.67680
2832.00000,129.29826
2834.00000,144.08531
2836.00000,90.59293
2838.00000,144.01263
2840.00000,121.75121
2842.00000,127.48513
2844.00000,204.19371
2846.00000,246.24583
2848.00000,237.36481
2850.00000,333.78064
2852.00000,379.09113
2854.00000,314.74020
2856.00000,380.01453
2858.00000,436.43732
2860.00000,429.56305
2862.00000,455.66058
2864.00000,528.59204
2866.00000,438.74689
2868.00000,466.96677
2870.00000,527.70740
2872.00000,466.78778
2874.00000,509.89090
2876.00000,564.32025
2878.00000,464.76422
2880.00000,393.56601
2882.00000,554.56860
2884.00000,452.65710
2886.00000,449.08868
2888.00000,535.79810
2890.00000,475.27448
2892.00000,541.03314
2894.00000,612.79041
2896.00000,579.28009
2898.00000,571.05243
2900.00000,710.27496
2902.00000,627.45129
2904.00000,634.18579
2906.00000,754.89404
2908.00000,708.48505
2910.00000,685.24475
2912.00000,742.47968
2914.00000,741.21942
2916.00000,702.43597
2918.00000,816.99353
2920.00000,751.15784
2922.00000,675.73615
2924.00000,748.56152
2926.00000,811.58081
2928.00000,763.69147
2930.00000,727.41437
2932.00000,751.55243
2934.00000,756.16760
2936.00000,697.65149
2938.00000,730.65363
2940.00000,711.30017
2942.00000,590.72931
2944.00000,565.60529
2946.00000,583.05884
2948.00000,459.04007
2950.00000,405.92493
2952.00000,548.82300
2954.00000,408.49567
2956.00000,410.17242
2958.00000,438.73798
2960.00000,320.37479
2962.00000,349.78900
2964.00000,437.63834
2966.00000,371.90826
2968.00000,294.11737
2970.00000,383.96127
2972.00000,280.08350
2974.00000,234.26839
2976.00000,276.65533
2978.00000,248.65741
2980.00000,190.08943
2982.00000,173.64175
2984.00000,194.74568
2986.00000,184.91602
2988.00000,110.20248
2990.00000,73.68031
2992.00000,147.31923
2994.00000,134.46008
2996.00000,0.00486
2998.00000,119.21999
3000.00000,114.02390
3002.00000,92.53889
3004.00000,132.46278
3006.00000,9.04488
3008.00000,59.04205
3010.00000,80.57749
3012.00000,39.55668
3014.00000,109.79432
3016.00000,117.98581
3018.00000,16.54037
3020.00000,49.92924
3022.00000,213.91251
3024.00000,142.06461
3026.00000,115.19147
3028.00000,244.58112
3030.00000,303.20511
3032.00000,162.35876
3034.00000,239.66029
3036.00000,410.60056
3038.00000,417.03647
3040.00000,314.64682
3042.00000,412.55847
3044.00000,482.39191
3046.00000,433.00443
3048.00000,449.95673
3050.00000,612.69617
3052.00000,513.36871
3054.00000,661.29547
3056.00000,855.70538
3058.00000,693.32892
3060.00000,823.77356
3062.00000,775.41254
3064.00000,647.00476
3066.00000,715.41547
3068.00000,748.97998
3070.00000,589.16742
3072.00000,498.60410
3074.00000,601.11835
3076.00000,597.35016
3078.00000,211.37447
3080.00000,325.56342
3082.00000,485.44852
3084.00000,184.78845
3086.00000,259.62158
3088.00000,317.76065
3090.00000,227.91527
3092.00000,202.41924
3094.00000,288.40488
3096.00000,128.05971
3098.00000,93.50188
3100.00000,249.39633
3102.00000,266.95810
3104.00000,102.28423
3106.00000,190.87198
3108.00000,243.93687
3110.00000,118.39635
3112.00000,178.65251
3114.00000,115.60728
3116.00000,91.97595
3118.00000,196.83131
3120.00000,227.74947
3122.00000,94.97440
3124.00000,152.93747
3126.00000,185.64496
3128.00000,52.97038
3130.00000,138.61676
3132.00000,163.39034
3134.00000,172.81264
3136.00000,205.60136
3138.00000,148.53606
3140.00000,84.44768
3142.00000,131.13866
3144.00000,135.22223
3146.00000,70.86602
3148.00000,212.47105
3150.00000,103.78655
3152.00000,27.37420
3154.00000,119.80897
3156.00000,49.61053
3158.00000,111.84010
3160.00000,135.34346
3162.00000,76.46499
3164.00000,86.16481
3166.00000,131.84946
3168.00000,184.42575
3170.00000,145.32333
3172.00000,57.45829
3174.00000,107.53806
3176.00000,172.65134
3178.00000,67.72195
3180.00000,71.95715
3182.00000,331.89264
3184.00000,102.20995
3186.00000,13.26511
3188.00000,172.71707
3190.00000,219.89139
3192.00000,175.85951
3194.00000,170.27347
3196.00000,115.94528
3198.00000,70.91698
3200.00000,213.97633
