300.00000,19.31640
302.00000,14.73303
304.00000,10.77742
306.00000,14.06255
308.00000,27.65095
310.00000,44.62213
312.00000,53.73180
314.00000,56.42473
316.00000,53.35846
318.00000,49.48638
320.00000,46.96605
322.00000,39.19675
324.00000,34.68084
326.00000,30.05607
328.00000,25.91713
330.00000,29.12455
332.00000,25.24499
334.00000,16.86720
336.00000,16.59256
338.00000,22.54991
340.00000,16.95594
342.00000,23.66934
344.00000,43.30862
346.00000,53.08770
348.00000,45.92085
350.00000,57.72163
352.00000,78.48354
354.00000,102.89461
356.00000,126.38960
358.00000,125.76099
360.00000,122.43118
362.00000,116.66061
364.00000,92.07275
366.00000,54.75385
368.00000,48.88672
370.00000,48.06369
372.00000,38.38694
374.00000,32.20913
376.00000,30.46300
378.00000,24.94647
380.00000,12.24800
382.00000,9.61225
384.00000,27.32514
386.00000,24.29227
388.00000,11.55596
390.00000,21.82774
392.00000,56.15570
394.00000,77.09854
396.00000,90.28564
398.00000,113.03621
400.00000,151.30663
402.00000,193.68079
404.00000,224.88342
406.00000,262.24683
408.00000,307.58868
410.00000,356.99014
412.00000,420.52463
414.00000,481.60876
416.00000,531.49664
418.00000,597.22015
420.00000,705.78815
422.00000,820.23077
424.00000,923.68634
426.00000,1043.14526
428.00000,1186.31506
430.00000,1314.93567
432.00000,1454.43542
434.00000,1607.97046
436.00000,1754.77014
438.00000,1882.65857
440.00000,2006.68823
442.00000,2120.81885
444.00000,2204.29199
446.00000,2240.35889
448.00000,2228.10181
450.00000,2176.43164
452.00000,2093.56152
454.00000,1973.03394
456.00000,1813.36841
458.00000,1645.52490
460.00000,1469.20776
462.00000,1292.67493
464.00000,1129.08325
466.00000,974.35773
468.00000,815.06268
470.00000,673.98157
472.00000,564.23724
474.00000,475.71027
476.00000,401.97293
478.00000,321.37219
480.00000,251.44603
482.00000,208.21663
484.00000,172.02263
486.00000,144.55467
488.00000,109.65701
490.00000,75.43839
492.00000,68.50124
494.00000,78.97307
496.00000,68.56743
498.00000,44.45620
500.00000,31.39763
502.00000,28.76909
504.00000,30.20474
506.00000,33.08947
508.00000,31.31592
510.00000,22.71550
512.00000,20.81857
514.00000,28.64913
516.00000,30.74520
518.00000,27.27918
520.00000,35.45959
522.00000,30.32014
524.00000,18.73351
526.00000,14.06251
528.00000,16.92164
530.00000,21.29094
532.00000,17.82505
534.00000,17.99672
536.00000,23.06759
538.00000,15.17594
540.00000,7.44364
542.00000,5.06125
544.00000,14.74205
546.00000,36.39205
548.00000,47.56098
550.00000,39.18042
552.00000,38.65384
554.00000,57.63498
556.00000,71.61980
558.00000,80.15817
560.00000,89.46915
562.00000,108.99787
564.00000,142.52463
566.00000,178.65297
568.00000,204.29189
570.00000,238.20537
572.00000,293.27039
574.00000,352.58228
576.00000,405.13541
578.00000,461.09265
580.00000,517.43689
582.00000,566.72180
584.00000,625.32880
586.00000,707.57922
588.00000,804.53247
590.00000,902.10480
592.00000,1000.90790
594.00000,1111.06372
596.00000,1217.17542
598.00000,1321.98999
600.00000,1433.05310
602.00000,1529.50391
604.00000,1608.12292
606.00000,1684.34790
608.00000,1740.26941
610.00000,1739.31909
612.00000,1715.47925
614.00000,1685.62390
616.00000,1651.40515
618.00000,1599.52161
620.00000,1503.33862
622.00000,1362.02881
624.00000,1214.40186
626.00000,1076.89465
628.00000,938.32196
630.00000,825.95709
632.00000,726.24548
634.00000,635.78308
636.00000,559.07898
638.00000,487.06097
640.00000,439.61179
642.00000,407.52335
644.00000,371.11694
646.00000,323.60056
648.00000,267.94189
650.00000,224.25314
652.00000,196.36993
654.00000,172.46335
656.00000,148.01790
658.00000,134.78845
660.00000,122.91843
662.00000,108.97696
664.00000,103.82384
666.00000,102.42976
668.00000,103.26321
670.00000,110.86560
672.00000,117.02244
674.00000,103.43855
676.00000,97.84781
678.00000,102.61990
680.00000,104.48746
682.00000,93.25075
684.00000,67.50819
686.00000,65.43662
688.00000,68.29172
690.00000,55.40955
692.00000,61.02567
694.00000,56.88221
696.00000,40.07275
698.00000,39.52986
700.00000,63.94928
702.00000,62.72993
704.00000,45.82690
706.00000,45.32563
708.00000,66.37283
710.00000,79.93027
712.00000,74.97554
714.00000,55.09238
716.00000,37.86412
718.00000,38.56178
720.00000,44.64881
722.00000,30.98128
724.00000,23.50225
726.00000,41.73949
728.00000,47.23756
730.00000,26.30570
732.00000,21.83731
734.00000,35.07224
736.00000,36.21203
738.00000,51.87741
740.00000,48.04176
742.00000,38.54465
744.00000,44.70767
746.00000,42.95704
748.00000,40.02813
750.00000,28.20968
752.00000,23.80861
754.00000,44.24352
756.00000,49.95292
758.00000,34.44334
760.00000,24.24242
762.00000,30.08302
764.00000,29.39883
766.00000,22.49847
768.00000,18.35122
770.00000,17.55890
772.00000,16.76911
774.00000,23.95566
776.00000,46.02922
778.00000,53.71858
780.00000,38.38060
782.00000,37.86395
784.00000,52.77990
786.00000,61.63256
788.00000,57.61086
790.00000,48.58718
792.00000,39.21422
794.00000,55.28358
796.00000,83.73367
798.00000,101.12223
800.00000,110.00018
802.00000,116.44392
804.00000,105.29508
806.00000,72.88323
808.00000,37.52650
810.00000,19.98478
812.00000,22.61211
814.00000,29.24625
816.00000,27.91521
818.00000,26.05851
820.00000,37.20804
822.00000,51.09813
824.00000,65.37184
826.00000,78.67155
828.00000,72.77814
830.00000,68.67947
832.00000,61.18276
834.00000,53.79235
836.00000,65.93441
838.00000,64.17905
840.00000,60.13525
842.00000,56.48997
844.00000,46.33455
846.00000,46.75943
848.00000,50.96951
850.00000,43.00696
852.00000,31.79605
854.00000,36.68191
856.00000,29.07130
858.00000,22.85248
860.00000,30.43294
862.00000,37.31013
864.00000,25.68303
866.00000,22.67297
868.00000,26.74598
870.00000,23.83944
872.00000,16.30912
874.00000,14.41414
876.00000,14.76986
878.00000,20.91349
880.00000,30.38236
882.00000,22.45212
884.00000,10.33844
886.00000,5.40698
888.00000,13.66948
890.00000,26.78506
892.00000,15.83891
894.00000,38.50005
896.00000,60.90616
898.00000,41.13787
900.00000,54.71814
902.00000,63.16529
904.00000,65.95203
906.00000,67.23230
908.00000,52.52611
910.00000,47.27731
912.00000,61.89677
914.00000,68.84788
916.00000,54.34011
918.00000,48.36676
920.00000,29.75497
922.00000,19.52739
924.00000,27.58218
926.00000,26.96141
928.00000,14.19767
930.00000,16.90491
932.00000,20.66361
934.00000,7.24462
936.00000,4.55451
938.00000,9.28823
940.00000,16.19168
942.00000,23.09351
944.00000,29.15298
946.00000,35.37972
948.00000,36.42068
950.00000,30.89585
952.00000,24.51057
954.00000,25.79037
956.00000,37.65690
958.00000,43.68906
960.00000,32.28614
962.00000,15.09729
964.00000,17.07911
966.00000,32.59929
968.00000,41.33526
970.00000,36.30127
972.00000,30.80837
974.00000,26.35994
976.00000,27.51009
978.00000,35.54417
980.00000,45.85197
982.00000,57.42545
984.00000,80.81845
986.00000,103.72707
988.00000,117.42564
990.00000,145.34290
992.00000,206.74399
994.00000,289.67850
996.00000,406.34653
998.00000,563.92218
1000.00000,679.79535
1002.00000,680.23859
1004.00000,575.08289
1006.00000,419.96365
1008.00000,265.18790
1010.00000,167.23962
1012.00000,120.89317
1014.00000,100.91138
1016.00000,92.77166
1018.00000,87.83029
1020.00000,89.01060
1022.00000,100.07278
1024.00000,128.81084
1026.00000,174.33073
1028.00000,194.44153
1030.00000,204.63846
1032.00000,209.80669
1034.00000,191.95331
1036.00000,163.18738
1038.00000,133.34996
1040.00000,108.16070
1042.00000,88.79463
1044.00000,75.32718
1046.00000,73.07684
1048.00000,64.73944
1050.00000,52.82870
1052.00000,53.91050
1054.00000,60.02180
1056.00000,73.16070
1058.00000,87.85818
1060.00000,101.29246
1062.00000,116.82130
1064.00000,123.41658
1066.00000,138.26863
1068.00000,148.49794
1070.00000,134.19058
1072.00000,128.88728
1074.00000,135.62360
1076.00000,151.86902
1078.00000,170.45944
1080.00000,200.61357
1082.00000,306.04489
1084.00000,435.79865
1086.00000,485.27884
1088.00000,436.72586
1090.00000,397.07202
1092.00000,326.45071
1094.00000,254.28333
1096.00000,209.74922
1098.00000,164.35957
1100.00000,153.02145
1102.00000,137.08543
1104.00000,109.73044
1106.00000,94.28439
1108.00000,72.34009
1110.00000,53.94054
1112.00000,60.63701
1114.00000,76.25135
1116.00000,65.08707
1118.00000,60.29397
1120.00000,61.45725
1122.00000,54.68979
1124.00000,40.90712
1126.00000,35.36849
1128.00000,33.44923
1130.00000,21.37675
1132.00000,4.07462
1134.00000,3.33848
1136.00000,15.68958
1138.00000,9.49908
1140.00000,2.14178
1142.00000,22.41101
1144.00000,41.96664
1146.00000,52.05461
1148.00000,65.21465
1150.00000,87.01262
1152.00000,115.13760
1154.00000,163.73801
1156.00000,201.31429
1158.00000,216.81050
1160.00000,209.81778
1162.00000,169.05542
1164.00000,156.95728
1166.00000,150.15851
1168.00000,138.12733
1170.00000,146.23497
1172.00000,116.98317
1174.00000,105.03888
1176.00000,113.54836
1178.00000,111.30764
1180.00000,123.69479
1182.00000,136.70039
1184.00000,124.49373
1186.00000,96.81344
1188.00000,85.06738
1190.00000,78.50010
1192.00000,72.20744
1194.00000,72.00742
1196.00000,82.90557
1198.00000,97.17303
1200.00000,96.33935
1202.00000,83.98449
1204.00000,73.17194
1206.00000,64.08453
1208.00000,41.68287
1210.00000,24.04547
1212.00000,20.15141
1214.00000,17.27259
1216.00000,5.48016
1218.00000,9.92087
1220.00000,15.92770
1222.00000,12.36792
1224.00000,13.36664
1226.00000,21.94159
1228.00000,28.51247
1230.00000,29.31731
1232.00000,30.85791
1234.00000,42.20965
1236.00000,62.56692
1238.00000,79.19271
1240.00000,109.50610
1242.00000,174.82111
1244.00000,228.50520
1246.00000,237.34573
1248.00000,258.26187
1250.00000,321.57452
1252.00000,369.06168
1254.00000,451.52487
1256.00000,575.76556
1258.00000,705.75281
1260.00000,822.04230
1262.00000,933.22150
1264.00000,924.15460
1266.00000,810.89319
1268.00000,651.04114
1270.00000,444.71484
1272.00000,327.48257
1274.00000,238.91818
1276.00000,149.03897
1278.00000,107.58151
1280.00000,71.33325
1282.00000,68.32207
1284.00000,81.38607
1286.00000,83.65520
1288.00000,97.15350
1290.00000,128.80327
1292.00000,165.84724
1294.00000,198.55472
1296.00000,227.08884
1298.00000,249.16212
1300.00000,252.19067
1302.00000,237.26311
1304.00000,231.43790
1306.00000,256.56894
1308.00000,270.81958
1310.00000,310.42020
1312.00000,403.64502
1314.00000,538.10895
1316.00000,705.09601
1318.00000,882.18256
1320.00000,1114.63477
1322.00000,1371.53296
1324.00000,1522.93677
1326.00000,1614.78735
1328.00000,1670.37842
1330.00000,1674.24243
1332.00000,1610.81372
1334.00000,1499.33972
1336.00000,1392.21973
1338.00000,1218.56494
1340.00000,997.54565
1342.00000,876.43256
1344.00000,764.88184
1346.00000,727.63837
1348.00000,772.69189
1350.00000,815.77301
1352.00000,823.65466
1354.00000,733.39557
1356.00000,605.16449
1358.00000,488.49295
1360.00000,368.42389
1362.00000,332.34872
1364.00000,251.35808
1366.00000,166.47031
1368.00000,172.68558
1370.00000,109.11363
1372.00000,63.02684
1374.00000,49.85098
1376.00000,39.68434
1378.00000,42.73425
1380.00000,42.57944
1382.00000,32.17986
1384.00000,28.27970
1386.00000,37.20308
1388.00000,39.78994
1390.00000,83.95965
1392.00000,119.89316
1394.00000,128.48262
1396.00000,177.70639
1398.00000,252.80350
1400.00000,310.17041
1402.00000,344.04846
1404.00000,356.58698
1406.00000,319.82285
1408.00000,270.04691
1410.00000,210.42253
1412.00000,150.50392
1414.00000,119.83310
1416.00000,99.16882
1418.00000,84.47915
1420.00000,76.39603
1422.00000,63.57584
1424.00000,38.32058
1426.00000,50.23323
1428.00000,60.10159
1430.00000,46.08870
1432.00000,49.87320
1434.00000,65.00083
1436.00000,99.47359
1438.00000,138.62355
1440.00000,150.56235
1442.00000,133.71236
1444.00000,143.71185
1446.00000,147.38460
1448.00000,136.76472
1450.00000,158.85365
1452.00000,178.63574
1454.00000,157.73564
1456.00000,143.53090
1458.00000,157.07072
1460.00000,121.91177
1462.00000,107.50479
1464.00000,93.85182
1466.00000,68.67397
1468.00000,66.12821
1470.00000,52.08187
1472.00000,36.72934
1474.00000,44.63678
1476.00000,55.99854
1478.00000,36.57503
1480.00000,91.81499
1482.00000,113.00359
1484.00000,106.23093
1486.00000,188.51256
1488.00000,200.92358
1490.00000,217.44971
1492.00000,238.69530
1494.00000,235.59027
1496.00000,275.27011
1498.00000,295.58112
1500.00000,308.93390
1502.00000,337.34341
1504.00000,349.54291
1506.00000,322.50061
1508.00000,360.83353
1510.00000,372.00961
1512.00000,305.99048
1514.00000,318.41357
1516.00000,251.22791
1518.00000,191.49306
1520.00000,144.00558
1522.00000,41.01061
1524.00000,80.90968
1526.00000,71.58009
1528.00000,30.44717
1530.00000,44.16570
1532.00000,14.67055
1534.00000,23.21743
1536.00000,48.89005
1538.00000,50.89349
1540.00000,48.95692
1542.00000,72.17348
1544.00000,66.03164
1546.00000,69.52325
1548.00000,95.15060
1550.00000,63.88726
1552.00000,61.42165
1554.00000,57.00589
1556.00000,36.99805
1558.00000,33.65351
1560.00000,19.95966
1562.00000,33.99221
1564.00000,23.82546
1566.00000,11.77289
1568.00000,100.98392
1570.00000,88.22955
1572.00000,141.38715
1574.00000,225.51205
1576.00000,199.50555
1578.00000,333.27557
1580.00000,423.19980
1582.00000,506.59439
1584.00000,672.49683
1586.00000,798.86108
1588.00000,931.16388
1590.00000,1076.36780
1592.00000,1169.60388
1594.00000,1177.65308
1596.00000,1170.61267
1598.00000,1108.60962
1600.00000,1039.66101
1602.00000,969.39819
1604.00000,818.38721
1606.00000,687.99365
1608.00000,568.67480
1610.00000,445.08914
1612.00000,341.86359
1614.00000,260.40817
1616.00000,189.04118
1618.00000,178.97014
1620.00000,173.67928
1622.00000,70.01551
1624.00000,95.50455
1626.00000,133.75189
1628.00000,93.06010
1630.00000,55.37659
1632.00000,79.98804
1634.00000,92.60500
1636.00000,77.47060
1638.00000,59.72073
1640.00000,49.11567
1642.00000,55.84481
1644.00000,38.82698
1646.00000,27.23838
1648.00000,62.40586
1650.00000,77.51819
1652.00000,45.70333
1654.00000,31.72848
1656.00000,51.73046
1658.00000,63.48539
1660.00000,134.65608
1662.00000,140.56627
1664.00000,111.17542
1666.00000,139.31998
1668.00000,130.24811
1670.00000,149.88226
1672.00000,148.77756
1674.00000,96.82439
1676.00000,75.14986
1678.00000,94.86732
1680.00000,58.93910
1682.00000,31.09754
1684.00000,77.47931
1686.00000,59.97493
1688.00000,58.85405
1690.00000,55.66459
1692.00000,37.24614
1694.00000,55.91891
1696.00000,68.62822
1698.00000,66.29331
1700.00000,67.06664
1702.00000,71.94324
1704.00000,57.55126
1706.00000,49.76149
1708.00000,20.78461
1710.00000,18.00465
1712.00000,87.38207
1714.00000,38.30782
1716.00000,16.46498
1718.00000,26.21690
1720.00000,3.78851
1722.00000,51.92137
1724.00000,58.68241
1726.00000,57.56830
1728.00000,67.99530
1730.00000,36.41543
1732.00000,30.38614
1734.00000,49.97480
1736.00000,68.33432
1738.00000,65.01073
1740.00000,41.79667
1742.00000,45.64470
1744.00000,40.73635
1746.00000,25.57744
1748.00000,37.81305
1750.00000,25.90807
1752.00000,36.89499
1754.00000,38.96342
1756.00000,20.26922
1758.00000,60.44865
1760.00000,35.62622
1762.00000,56.01534
1764.00000,107.19247
1766.00000,52.05248
1768.00000,48.74117
1770.00000,42.21943
1772.00000,38.53945
1774.00000,59.02205
1776.00000,44.43637
1778.00000,81.37815
1780.00000,78.69070
1782.00000,37.90993
1784.00000,65.43038
1786.00000,84.70205
1788.00000,105.04076
1790.00000,76.77681
1792.00000,20.17546
1794.00000,62.11909
1796.00000,69.14754
1798.00000,97.70975
1800.00000,90.32083
1802.00000,-0.72378
1804.00000,132.02928
1806.00000,145.48489
1808.00000,61.75725
1810.00000,83.34608
1812.00000,114.94991
1814.00000,107.67414
1816.00000,97.71732
1818.00000,99.53352
1820.00000,90.07742
1822.00000,84.68080
1824.00000,120.74821
1826.00000,126.68297
1828.00000,78.58722
1830.00000,67.67108
1832.00000,39.10181
1834.00000,70.00977
1836.00000,122.24128
1838.00000,93.38036
1840.00000,74.10635
1842.00000,23.33668
1844.00000,70.00809
1846.00000,146.46596
1848.00000,8.21911
1850.00000,99.68399
1852.00000,110.60802
1854.00000,19.22622
1856.00000,101.28081
1858.00000,86.95076
1860.00000,89.50275
1862.00000,110.82906
1864.00000,68.96592
1866.00000,18.94333
1868.00000,91.86733
1870.00000,64.20414
1872.00000,7.81296
1874.00000,105.90315
1876.00000,83.44881
1878.00000,71.18991
1880.00000,57.03666
1882.00000,5.73211
1884.00000,26.60224
1886.00000,99.16838
1888.00000,90.85191
1890.00000,38.51202
1892.00000,54.58929
1894.00000,72.55367
1896.00000,85.60108
1898.00000,97.72140
1900.00000,97.33877
1902.00000,83.49787
1904.00000,103.02776
1906.00000,134.56125
1908.00000,112.64062
1910.00000,62.55312
1912.00000,115.03193
1914.00000,115.63783
1916.00000,109.25240
1918.00000,129.82851
1920.00000,90.39642
1922.00000,104.98455
1924.00000,75.86790
1926.00000,56.81905
1928.00000,111.00806
1930.00000,56.71671
1932.00000,79.31905
1934.00000,94.69473
1936.00000,31.89934
1938.00000,35.27257
1940.00000,93.11539
1942.00000,76.78125
1944.00000,98.23388
1946.00000,176.25533
1948.00000,17.25101
1950.00000,104.02039
1952.00000,180.91663
1954.00000,82.50262
1956.00000,108.03760
1958.00000,26.73755
1960.00000,72.40668
1962.00000,170.57497
1964.00000,104.97710
1966.00000,72.41930
1968.00000,128.79739
1970.00000,134.53532
1972.00000,101.09409
1974.00000,142.14549
1976.00000,60.91934
1978.00000,76.63779
1980.00000,121.41851
1982.00000,44.83196
1984.00000,57.86425
1986.00000,92.45409
1988.00000,85.84475
1990.00000,46.11647
1992.00000,14.99126
1994.00000,26.21564
1996.00000,48.60448
1998.00000,55.78471
2000.00000,28.42013
2002.00000,24.98203
2004.00000,13.44321
2006.00000,12.76251
2008.00000,24.40107
2010.00000,22.40729
2012.00000,18.10227
2014.00000,23.92788
2016.00000,30.42584
2018.00000,28.25084
2020.00000,34.61819
2022.00000,45.41089
2024.00000,44.84681
2026.00000,38.13938
2028.00000,41.19110
2030.00000,42.25855
2032.00000,33.81418
2034.00000,33.85312
2036.00000,55.33932
2038.00000,52.66413
2040.00000,45.04983
2042.00000,67.02922
2044.00000,65.37826
2046.00000,54.67342
2048.00000,59.57137
2050.00000,73.95852
2052.00000,71.73689
2054.00000,60.10275
2056.00000,51.88262
2058.00000,48.34087
2060.00000,49.12041
2062.00000,64.35891
2064.00000,68.01392
2066.00000,53.92390
2068.00000,40.73521
2070.00000,42.91668
2072.00000,48.52164
2074.00000,50.08279
2076.00000,49.81266
2078.00000,48.18694
2080.00000,35.86110
2082.00000,33.04085
2084.00000,37.43827
2086.00000,41.94895
2088.00000,61.27044
2090.00000,59.02744
2092.00000,46.59366
2094.00000,43.87983
2096.00000,43.03929
2098.00000,47.27967
2100.00000,49.14997
2102.00000,54.48554
2104.00000,66.43545
2106.00000,62.03609
2108.00000,62.45966
2110.00000,56.46548
2112.00000,47.31364
2114.00000,69.24565
2116.00000,69.59457
2118.00000,50.69717
2120.00000,45.43942
2122.00000,56.27800
2124.00000,41.57119
2126.00000,27.17352
2128.00000,41.44266
2130.00000,61.80577
2132.00000,44.97491
2134.00000,55.09728
2136.00000,64.30356
2138.00000,55.00155
2140.00000,63.53434
2142.00000,58.74080
2144.00000,53.99242
2146.00000,64.51785
2148.00000,75.24818
2150.00000,61.50925
2152.00000,56.23941
2154.00000,56.45166
2156.00000,56.47070
2158.00000,69.98865
2160.00000,65.93823
2162.00000,60.85262
2164.00000,67.31042
2166.00000,68.28908
2168.00000,51.52000
2170.00000,46.98392
2172.00000,53.65905
2174.00000,58.05625
2176.00000,65.41715
2178.00000,60.06034
2180.00000,61.75917
2182.00000,69.83596
2184.00000,55.29839
2186.00000,34.33334
2188.00000,67.76275
2190.00000,94.41351
2192.00000,51.48525
2194.00000,35.23534
2196.00000,71.56499
2198.00000,78.54962
2200.00000,47.21077
2202.00000,58.02377
2204.00000,49.60473
2206.00000,52.51558
2208.00000,63.74162
2210.00000,50.59475
2212.00000,50.27702
2214.00000,49.19321
2216.00000,40.20342
2218.00000,34.40444
2220.00000,39.17421
2222.00000,40.97905
2224.00000,45.79495
2226.00000,43.82035
2228.00000,27.00101
2230.00000,35.17492
2232.00000,38.13005
2234.00000,34.48095
2236.00000,51.50046
2238.00000,77.48513
2240.00000,43.11576
2242.00000,25.86862
2244.00000,56.05909
2246.00000,54.64463
2248.00000,44.53865
2250.00000,45.31398
2252.00000,51.53977
2254.00000,45.91851
2256.00000,25.98283
2258.00000,29.16692
2260.00000,62.89707
2262.00000,81.08619
2264.00000,48.20319
2266.00000,48.20218
2268.00000,55.87621
2270.00000,47.60600
2272.00000,45.57259
2274.00000,49.97015
2276.00000,52.72374
2278.00000,49.13261
2280.00000,38.62831
2282.00000,27.63713
2284.00000,36.93475
2286.00000,45.02541
2288.00000,43.93802
2290.00000,51.62918
2292.00000,56.04972
2294.00000,42.92371
2296.00000,34.29010
2298.00000,35.63257
2300.00000,8.20973
2302.00000,14.31512
2304.00000,35.32975
2306.00000,42.83068
2308.00000,50.46161
2310.00000,31.47976
2312.00000,30.43794
2314.00000,39.12137
2316.00000,33.25860
2318.00000,68.12402
2320.00000,68.00154
2322.00000,37.60932
2324.00000,32.75142
2326.00000,52.45142
2328.00000,47.39884
2330.00000,52.98977
2332.00000,63.63541
2334.00000,39.23379
2336.00000,35.22324
2338.00000,44.78603
2340.00000,53.41932
2342.00000,58.17776
2344.00000,53.28988
2346.00000,36.35544
2348.00000,64.05222
2350.00000,86.27547
2352.00000,26.35953
2354.00000,70.76820
2356.00000,94.23251
2358.00000,62.63650
2360.00000,65.18179
2362.00000,77.35023
2364.00000,74.56135
2366.00000,66.96942
2368.00000,70.47025
2370.00000,78.22216
2372.00000,73.05779
2374.00000,74.75631
2376.00000,73.53617
2378.00000,52.06977
2380.00000,55.46874
2382.00000,80.16423
2384.00000,77.85108
2386.00000,54.53490
2388.00000,77.17068
2390.00000,75.64931
2392.00000,53.37442
2394.00000,54.58872
2396.00000,68.66269
2398.00000,24.75618
2400.00000,50.60815
2402.00000,96.81915
2404.00000,53.01276
2406.00000,19.56033
2408.00000,47.15448
2410.00000,62.62841
2412.00000,43.95259
2414.00000,59.54454
2416.00000,67.12714
2418.00000,47.18691
2420.00000,34.03924
2422.00000,53.74645
2424.00000,61.16132
2426.00000,37.16263
2428.00000,39.69940
2430.00000,66.57241
2432.00000,38.61634
2434.00000,50.18950
2436.00000,62.99063
2438.00000,45.15979
2440.00000,37.49996
2442.00000,47.82740
2444.00000,45.36401
2446.00000,41.26384
2448.00000,51.16853
2450.00000,46.30013
2452.00000,30.61808
2454.00000,40.52112
2456.00000,53.85612
2458.00000,22.72284
2460.00000,21.37403
2462.00000,57.41798
2464.00000,70.95813
2466.00000,41.55658
2468.00000,41.63294
2470.00000,40.90555
2472.00000,48.38685
2474.00000,50.79367
2476.00000,16.05268
2478.00000,56.74049
2480.00000,81.39882
2482.00000,41.52863
2484.00000,17.45282
2486.00000,45.80487
2488.00000,19.69210
2490.00000,13.75544
2492.00000,66.43862
2494.00000,28.24023
2496.00000,11.20036
2498.00000,33.12352
2500.00000,46.84447
2502.00000,43.03351
2504.00000,56.20129
2506.00000,39.06137
2508.00000,35.47603
2510.00000,60.39120
2512.00000,6.29470
2514.00000,35.46503
2516.00000,65.00558
2518.00000,36.23146
2520.00000,61.19717
2522.00000,75.28588
2524.00000,49.75064
2526.00000,44.37249
2528.00000,83.22239
2530.00000,65.39734
2532.00000,61.62804
2534.00000,76.03056
2536.00000,67.32617
2538.00000,54.04900
2540.00000,88.16371
2542.00000,78.97826
2544.00000,46.48337
2546.00000,79.18256
2548.00000,67.85131
2550.00000,66.83469
2552.00000,83.58786
2554.00000,77.40615
2556.00000,63.85745
2558.00000,79.39261
2560.00000,84.58678
2562.00000,59.52612
2564.00000,49.10177
2566.00000,72.61339
2568.00000,62.41168
2570.00000,34.77121
2572.00000,57.10923
2574.00000,98.48811
2576.00000,56.93212
2578.00000,40.67925
2580.00000,80.98627
2582.00000,39.78201
2584.00000,39.88049
2586.00000,84.18357
2588.00000,89.97166
2590.00000,45.65666
2592.00000,64.38037
2594.00000,81.38282
2596.00000,68.82365
2598.00000,65.54493
2600.00000,83.72530
2602.00000,59.67423
2604.00000,63.35210
2606.00000,89.74750
2608.00000,61.03324
2610.00000,64.49812
2612.00000,67.76614
2614.00000,64.45493
2616.00000,74.06998
2618.00000,71.53197
2620.00000,65.92750
2622.00000,72.07066
2624.00000,67.88707
2626.00000,34.72916
2628.00000,53.03397
2630.00000,95.77155
2632.00000,88.17108
2634.00000,38.25373
2636.00000,58.25560
2638.00000,71.66064
2640.00000,64.19978
2642.00000,80.01746
2644.00000,108.53679
2646.00000,69.98942
2648.00000,61.70633
2650.00000,109.96987
2652.00000,111.99464
2654.00000,53.61728
2656.00000,64.16428
2658.00000,89.15571
2660.00000,50.68858
2662.00000,56.49435
2664.00000,104.30999
2666.00000,73.23270
2668.00000,26.43463
2670.00000,103.97337
2672.00000,67.29317
2674.00000,7.67486
2676.00000,37.58064
2678.00000,85.24295
2680.00000,24.19487
2682.00000,48.91521
2684.00000,73.63940
2686.00000,13.63540
2688.00000,10.22007
2690.00000,52.75568
2692.00000,43.08301
2694.00000,10.96679
2696.00000,42.98314
2698.00000,63.76246
2700.00000,25.69967
2702.00000,3.50180
2704.00000,39.82396
2706.00000,56.38369
2708.00000,65.34411
2710.00000,64.59972
2712.00000,45.65980
2714.00000,23.47188
2716.00000,30.97102
2718.00000,52.17494
2720.00000,71.44035
2722.00000,70.43082
2724.00000,33.88971
2726.00000,44.55734
2728.00000,70.06499
2730.00000,52.44868
2732.00000,22.50510
2734.00000,53.06298
2736.00000,45.97432
2738.00000,18.40178
2740.00000,46.33469
2742.00000,44.06438
2744.00000,37.97176
2746.00000,29.29721
2748.00000,6.21758
2750.00000,-2.83399
2752.00000,32.82560
2754.00000,45.84748
2756.00000,31.56272
2758.00000,37.55412
2760.00000,21.59077
2762.00000,39.20549
2764.00000,41.90331
2766.00000,18.10762
2768.00000,76.86597
2770.00000,56.07735
2772.00000,15.50453
2774.00000,30.80505
2776.00000,42.04538
2778.00000,27.01866
2780.00000,19.92562
2782.00000,42.78616
2784.00000,56.59704
2786.00000,8.03873
2788.00000,16.08599
2790.00000,37.78128
2792.00000,35.30351
2794.00000,61.95481
2796.00000,15.75018
2798.00000,20.78011
2800.00000,62.46696
2802.00000,32.89452
2804.00000,45.09985
2806.00000,30.54848
2808.00000,20.63437
2810.00000,54.96088
2812.00000,56.70382
2814.00000,36.80586
2816.00000,19.33390
2818.00000,29.31605
2820.00000,51.52663
2822.00000,9.52148
2824.00000,22.38355
2826.00000,69.32584
2828.00000,53.19469
2830.00000,29.59006
2832.00000,93.08958
2834.00000,114.53442
2836.00000,62.23271
2838.00000,101.47226
2840.00000,199.80937
2842.00000,184.09468
2844.00000,159.83606
2846.00000,255.01166
2848.00000,230.60042
2850.00000,247.56616
2852.00000,309.55396
2854.00000,336.91150
2856.00000,362.42764
2858.00000,385.52899
2860.00000,408.73697
2862.00000,410.70026
2864.00000,393.53604
2866.00000,435.69025
2868.00000,465.02728
2870.00000,444.18484
2872.00000,431.11240
2874.00000,475.21677
2876.00000,451.03488
2878.00000,446.08774
2880.00000,469.38406
2882.00000,423.60382
2884.00000,459.06473
2886.00000,461.45215
2888.00000,462.01935
2890.00000,529.97607
2892.00000,520.62793
2894.00000,572.72614
2896.00000,611.54651
2898.00000,548.67804
2900.00000,518.71802
2902.00000,656.31073
2904.00000,661.43579
2906.00000,584.92133
2908.00000,663.64502
2910.00000,635.13635
2912.00000,633.40503
2914.00000,680.16840
2916.00000,684.84283
2918.00000,659.14532
2920.00000,677.77533
2922.00000,678.78583
2924.00000,673.61688
2926.00000,706.78088
2928.00000,632.19275
2930.00000,649.18402
2932.00000,699.94489
2934.00000,656.94312
2936.00000,670.39551
2938.00000,624.05420
2940.00000,567.26062
2942.00000,556.04059
2944.00000,522.84735
2946.00000,467.44830
2948.00000,469.63629
2950.00000,414.34555
2952.00000,299.72037
2954.00000,452.18796
2956.00000,333.21738
2958.00000,204.12500
2960.00000,338.59723
2962.00000,318.00385
2964.00000,215.66562
2966.00000,233.99953
2968.00000,268.94522
2970.00000,184.43811
2972.00000,279.83087
2974.00000,221.04840
2976.00000,150.27190
2978.00000,249.25697
2980.00000,177.21016
2982.00000,118.09147
2984.00000,120.23103
2986.00000,101.36639
2988.00000,47.02983
2990.00000,53.60516
2992.00000,14.87569
2994.00000,25.22591
2996.00000,124.11339
2998.00000,45.14291
3000.00000,132.24004
3002.00000,134.89497
3004.00000,0.48542
3006.00000,135.19527
3008.00000,111.59332
3010.00000,69.45261
3012.00000,86.13398
3014.00000,61.85388
3016.00000,134.18726
3018.00000,160.94644
3020.00000,117.51089
3022.00000,100.84795
3024.00000,152.46036
3026.00000,212.92143
3028.00000,189.88910
3030.00000,186.68968
3032.00000,294.74072
3034.00000,226.97691
3036.00000,236.82062
3038.00000,351.85748
3040.00000,387.85486
3042.00000,365.57175
3044.00000,387.41925
3046.00000,407.39404
3048.00000,449.80887
3050.00000,587.86578
3052.00000,607.10291
3054.00000,642.92902
3056.00000,707.56207
3058.00000,690.27454
3060.00000,675.27167
3062.00000,681.24432
3064.00000,648.15680
3066.00000,605.00757
3068.00000,631.04492
3070.00000,535.76721
3072.00000,505.99847
3074.00000,475.35275
3076.00000,301.27484
3078.00000,397.44452
3080.00000,371.28836
3082.00000,286.69794
3084.00000,336.67920
3086.00000,270.35928
3088.00000,273.21368
3090.00000,292.56827
3092.00000,231.27946
3094.00000,178.74097
3096.00000,248.59962
3098.00000,151.55992
3100.00000,115.49970
3102.00000,329.50699
3104.00000,243.29099
3106.00000,167.54730
3108.00000,225.43283
3110.00000,255.90956
3112.00000,198.29030
3114.00000,293.00809
3116.00000,226.04733
3118.00000,134.55844
3120.00000,350.42139
3122.00000,422.44852
3124.00000,255.41949
3126.00000,193.15559
3128.00000,330.00415
3130.00000,306.55542
3132.00000,305.01331
3134.00000,398.86200
3136.00000,353.92175
3138.00000,114.91882
3140.00000,253.16031
3142.00000,272.95441
3144.00000,274.36728
3146.00000,388.61270
3148.00000,51.83929
3150.00000,117.86368
3152.00000,337.47284
3154.00000,288.98526
3156.00000,206.16840
3158.00000,163.52168
3160.00000,217.93204
3162.00000,263.99246
3164.00000,201.63724
3166.00000,160.24937
3168.00000,129.61957
3170.00000,221.83080
3172.00000,292.18393
3174.00000,76.25574
3176.00000,185.18307
3178.00000,249.95544
3180.00000,113.50008
3182.00000,146.82886
3184.00000,295.54214
3186.00000,161.91148
3188.00000,-28.56274
3190.00000,112.97778
3192.00000,344.15387
3194.00000,130.85034
3196.00000,59.96277
3198.00000,262.31253
3200.00000,157.98775
