300.00000,24.90167
302.00000,14.43132
304.00000,14.37112
306.00000,15.16331
308.00000,17.40239
310.00000,27.85570
312.00000,39.54135
314.00000,35.34468
316.00000,41.18919
318.00000,60.16930
320.00000,68.41479
322.00000,63.01063
324.00000,69.54190
326.00000,72.68749
328.00000,58.51187
330.00000,48.07619
332.00000,56.79352
334.00000,59.55616
336.00000,44.00246
338.00000,30.91983
340.00000,45.80282
342.00000,66.72944
344.00000,77.37164
346.00000,80.25871
348.00000,83.25089
350.00000,83.89697
352.00000,92.62497
354.00000,108.19498
356.00000,115.45205
358.00000,108.26215
360.00000,111.01741
362.00000,114.71939
364.00000,105.14767
366.00000,88.69999
368.00000,74.29110
370.00000,67.99187
372.00000,72.90470
374.00000,81.00267
376.00000,76.96693
378.00000,74.72106
380.00000,81.03793
382.00000,83.73930
384.00000,75.64973
386.00000,84.19235
388.00000,100.60884
390.00000,112.96765
392.00000,130.20880
394.00000,171.95485
396.00000,226.27168
398.00000,261.54788
400.00000,283.82855
402.00000,323.39035
404.00000,361.75247
406.00000,405.71387
408.00000,468.41797
410.00000,536.08856
412.00000,584.14075
414.00000,664.63446
416.00000,764.64661
418.00000,862.33527
420.00000,969.40790
422.00000,1093.63770
424.00000,1234.72620
426.00000,1375.56970
428.00000,1511.75049
430.00000,1664.55579
432.00000,1826.39624
434.00000,1995.36987
436.00000,2159.23901
438.00000,2299.62646
440.00000,2424.08838
442.00000,2549.26978
444.00000,2650.56958
446.00000,2695.27393
448.00000,2685.38037
450.00000,2627.14600
452.00000,2515.10693
454.00000,2359.78833
456.00000,2182.07959
458.00000,1980.17468
460.00000,1760.85559
462.00000,1537.63757
464.00000,1317.63037
466.00000,1107.88269
468.00000,944.94604
470.00000,805.32977
472.00000,665.10699
474.00000,543.82190
476.00000,468.46994
478.00000,378.23303
480.00000,290.01505
482.00000,243.98830
484.00000,209.92708
486.00000,155.12379
488.00000,112.45594
490.00000,93.80467
492.00000,74.92551
494.00000,58.62932
496.00000,54.24963
498.00000,41.14088
500.00000,14.14342
502.00000,7.58276
504.00000,24.13212
506.00000,35.49990
508.00000,28.51997
510.00000,19.87721
512.00000,29.44410
514.00000,43.17791
516.00000,45.86782
518.00000,39.13099
520.00000,33.79098
522.00000,27.62142
524.00000,37.19032
526.00000,52.73927
528.00000,50.04980
530.00000,38.53567
532.00000,26.28363
534.00000,36.23230
536.00000,58.67239
538.00000,50.91326
540.00000,33.16185
542.00000,26.41972
544.00000,35.87339
546.00000,51.71024
548.00000,58.57090
550.00000,59.31241
552.00000,80.95561
554.00000,121.32253
556.00000,143.42126
558.00000,156.36591
560.00000,174.60001
562.00000,205.75426
564.00000,244.92195
566.00000,280.24106
568.00000,326.67163
570.00000,382.02878
572.00000,435.20795
574.00000,489.81888
576.00000,563.82751
578.00000,639.44818
580.00000,709.01672
582.00000,780.33307
584.00000,852.17914
586.00000,931.01831
588.00000,1034.27808
590.00000,1154.36218
592.00000,1263.93115
594.00000,1379.57520
596.00000,1525.53943
598.00000,1668.09827
600.00000,1773.82080
602.00000,1881.72522
604.00000,1988.67456
606.00000,2074.53882
608.00000,2124.08691
610.00000,2137.58130
612.00000,2129.38403
614.00000,2097.44141
616.00000,2033.05383
618.00000,1934.83569
620.00000,1809.20789
622.00000,1650.87671
624.00000,1480.31592
626.00000,1316.95288
628.00000,1157.21631
630.00000,996.14496
632.00000,867.36176
634.00000,769.67572
636.00000,681.01898
638.00000,602.06860
640.00000,515.83948
642.00000,450.91086
644.00000,417.46561
646.00000,375.50043
648.00000,302.53220
650.00000,258.71313
652.00000,233.06451
654.00000,196.27460
656.00000,187.39577
658.00000,164.75601
660.00000,133.75038
662.00000,112.22218
664.00000,101.42716
666.00000,114.01398
668.00000,122.43829
670.00000,117.15384
672.00000,111.46841
674.00000,111.97548
676.00000,111.61506
678.00000,106.63417
680.00000,99.42915
682.00000,90.03480
684.00000,72.81104
686.00000,73.40355
688.00000,74.22881
690.00000,58.49514
692.00000,61.98371
694.00000,86.97180
696.00000,97.42301
698.00000,79.60728
700.00000,57.22762
702.00000,48.09434
704.00000,53.69444
706.00000,63.04145
708.00000,62.45505
710.00000,52.28571
712.00000,59.75789
714.00000,66.45755
716.00000,52.51265
718.00000,32.47919
720.00000,31.98184
722.00000,22.62796
724.00000,15.22902
726.00000,27.13659
728.00000,33.80976
730.00000,31.56796
732.00000,34.79628
734.00000,49.38168
736.00000,62.50686
738.00000,56.83076
740.00000,36.02764
742.00000,23.61426
744.00000,33.64884
746.00000,49.21270
748.00000,43.29713
750.00000,29.87123
752.00000,30.83462
754.00000,43.98289
756.00000,45.33191
758.00000,31.05213
760.00000,14.47656
762.00000,7.47401
764.00000,13.10482
766.00000,35.97225
768.00000,40.12705
770.00000,24.03512
772.00000,16.91291
774.00000,14.46395
776.00000,28.08172
778.00000,49.08356
780.00000,54.39547
782.00000,44.10867
784.00000,62.25785
786.00000,62.60282
788.00000,44.42508
790.00000,51.43130
792.00000,60.03756
794.00000,63.06482
796.00000,65.50658
798.00000,70.54281
800.00000,77.50879
802.00000,89.45546
804.00000,83.51424
806.00000,55.61460
808.00000,34.54662
810.00000,42.40461
812.00000,33.12631
814.00000,19.26933
816.00000,22.08075
818.00000,22.48207
820.00000,27.10436
822.00000,44.35028
824.00000,51.50864
826.00000,43.10935
828.00000,66.94343
830.00000,70.46680
832.00000,44.09716
834.00000,24.99779
836.00000,38.82507
838.00000,65.52902
840.00000,68.81972
842.00000,54.65314
844.00000,45.98799
846.00000,31.86968
848.00000,21.07359
850.00000,12.91885
852.00000,11.72699
854.00000,24.25834
856.00000,25.41401
858.00000,26.40345
860.00000,31.75958
862.00000,31.61215
864.00000,27.69133
866.00000,32.47248
868.00000,40.56460
870.00000,35.00616
872.00000,13.50299
874.00000,8.09807
876.00000,33.59953
878.00000,58.51792
880.00000,51.03609
882.00000,32.46626
884.00000,28.33651
886.00000,32.99777
888.00000,40.43836
890.00000,50.58430
892.00000,41.32206
894.00000,48.94884
896.00000,44.79425
898.00000,19.92517
900.00000,58.03163
902.00000,56.77790
904.00000,35.56838
906.00000,38.14708
908.00000,44.73007
910.00000,57.53787
912.00000,44.83573
914.00000,36.57764
916.00000,54.07151
918.00000,39.86306
920.00000,34.26438
922.00000,40.76871
924.00000,42.03754
926.00000,34.47281
928.00000,19.26108
930.00000,11.42382
932.00000,24.50336
934.00000,40.54021
936.00000,23.61382
938.00000,16.48889
940.00000,27.68411
942.00000,29.22551
944.00000,13.26344
946.00000,24.95399
948.00000,32.30791
950.00000,36.58163
952.00000,43.96140
954.00000,23.77066
956.00000,24.13544
958.00000,36.34966
960.00000,36.38015
962.00000,27.29170
964.00000,19.75608
966.00000,21.24094
968.00000,36.63508
970.00000,47.84282
972.00000,30.23561
974.00000,36.07281
976.00000,49.39688
978.00000,54.28881
980.00000,69.49604
982.00000,90.69174
984.00000,87.39262
986.00000,97.21505
988.00000,142.98126
990.00000,173.18140
992.00000,214.29361
994.00000,305.27933
996.00000,438.94891
998.00000,580.12189
1000.00000,707.11194
1002.00000,715.46338
1004.00000,610.76080
1006.00000,461.95630
1008.00000,305.29053
1010.00000,200.47186
1012.00000,146.38239
1014.00000,118.80270
1016.00000,103.47156
1018.00000,93.73523
1020.00000,94.19067
1022.00000,108.97165
1024.00000,136.11493
1026.00000,169.68498
1028.00000,204.84837
1030.00000,222.25565
1032.00000,222.33849
1034.00000,211.15848
1036.00000,169.45290
1038.00000,135.52702
1040.00000,119.60241
1042.00000,103.81448
1044.00000,81.45464
1046.00000,68.66461
1048.00000,68.73435
1050.00000,62.45516
1052.00000,41.65846
1054.00000,39.51275
1056.00000,56.78339
1058.00000,63.46146
1060.00000,63.35329
1062.00000,92.47203
1064.00000,110.58875
1066.00000,115.16140
1068.00000,109.35649
1070.00000,96.06018
1072.00000,100.92445
1074.00000,124.90582
1076.00000,136.74725
1078.00000,136.99236
1080.00000,174.50342
1082.00000,255.84691
1084.00000,328.24341
1086.00000,367.35205
1088.00000,365.09790
1090.00000,291.52490
1092.00000,229.08197
1094.00000,186.03900
1096.00000,145.66168
1098.00000,127.94674
1100.00000,120.26305
1102.00000,105.38718
1104.00000,82.41171
1106.00000,69.23586
1108.00000,76.11947
1110.00000,53.59459
1112.00000,38.20753
1114.00000,47.94888
1116.00000,39.18367
1118.00000,47.15813
1120.00000,46.73365
1122.00000,42.54060
1124.00000,54.52648
1126.00000,51.53180
1128.00000,38.16203
1130.00000,28.32059
1132.00000,24.35537
1134.00000,20.74079
1136.00000,21.50690
1138.00000,13.13693
1140.00000,0.09554
1142.00000,11.30800
1144.00000,54.62155
1146.00000,49.53028
1148.00000,52.72790
1150.00000,92.67171
1152.00000,107.86955
1154.00000,138.60762
1156.00000,154.21448
1158.00000,148.27376
1160.00000,139.31972
1162.00000,115.82437
1164.00000,85.57864
1166.00000,79.27409
1168.00000,79.12161
1170.00000,54.63374
1172.00000,76.65245
1174.00000,76.40867
1176.00000,84.48325
1178.00000,119.34273
1180.00000,71.44273
1182.00000,113.79717
1184.00000,131.90720
1186.00000,79.53463
1188.00000,93.06342
1190.00000,87.00713
1192.00000,85.05541
1194.00000,99.90504
1196.00000,104.94301
1198.00000,93.57856
1200.00000,83.80083
1202.00000,81.76750
1204.00000,84.16654
1206.00000,77.94864
1208.00000,44.38648
1210.00000,38.49466
1212.00000,46.77106
1214.00000,30.53770
1216.00000,19.99674
1218.00000,36.41184
1220.00000,32.93792
1222.00000,7.15112
1224.00000,6.46872
1226.00000,11.65917
1228.00000,20.13006
1230.00000,24.40950
1232.00000,21.86628
1234.00000,25.84179
1236.00000,30.17696
1238.00000,35.28755
1240.00000,47.63752
1242.00000,75.18395
1244.00000,117.90791
1246.00000,131.49432
1248.00000,134.72791
1250.00000,160.55643
1252.00000,187.80139
1254.00000,216.17148
1256.00000,279.81595
1258.00000,369.14734
1260.00000,433.77939
1262.00000,463.39297
1264.00000,464.65918
1266.00000,421.25742
1268.00000,329.61551
1270.00000,232.43095
1272.00000,169.82137
1274.00000,119.49223
1276.00000,65.24422
1278.00000,26.01573
1280.00000,17.28876
1282.00000,26.86686
1284.00000,29.30879
1286.00000,26.43755
1288.00000,44.82732
1290.00000,60.43422
1292.00000,70.98380
1294.00000,97.63057
1296.00000,136.44273
1298.00000,134.69850
1300.00000,121.35786
1302.00000,124.26750
1304.00000,131.61214
1306.00000,121.48353
1308.00000,125.79296
1310.00000,156.24501
1312.00000,203.12578
1314.00000,263.04953
1316.00000,353.27332
1318.00000,465.89545
1320.00000,597.43066
1322.00000,720.27972
1324.00000,794.39935
1326.00000,858.04126
1328.00000,899.28564
1330.00000,889.84912
1332.00000,840.35962
1334.00000,795.51849
1336.00000,721.26599
1338.00000,630.76349
1340.00000,542.73694
1342.00000,446.65784
1344.00000,389.23044
1346.00000,411.47668
1348.00000,422.00061
1350.00000,377.61310
1352.00000,437.07874
1354.00000,395.38867
1356.00000,303.94516
1358.00000,264.62091
1360.00000,207.21104
1362.00000,166.61272
1364.00000,111.61777
1366.00000,71.61825
1368.00000,78.85156
1370.00000,53.29457
1372.00000,41.30994
1374.00000,27.46368
1376.00000,6.24183
1378.00000,17.42465
1380.00000,10.74281
1382.00000,12.65319
1384.00000,20.37763
1386.00000,5.99242
1388.00000,-0.05739
1390.00000,38.76397
1392.00000,62.01268
1394.00000,47.85863
1396.00000,73.27458
1398.00000,147.71025
1400.00000,121.75187
1402.00000,110.35756
1404.00000,200.04326
1406.00000,115.60361
1408.00000,93.06252
1410.00000,93.51938
1412.00000,54.26706
1414.00000,71.82870
1416.00000,53.04337
1418.00000,46.08205
1420.00000,46.03025
1422.00000,15.97643
1424.00000,12.49013
1426.00000,39.07675
1428.00000,47.88456
1430.00000,51.55838
1432.00000,97.80457
1434.00000,115.22965
1436.00000,134.57031
1438.00000,169.37665
1440.00000,179.21832
1442.00000,146.93707
1444.00000,159.67723
1446.00000,202.65977
1448.00000,220.62627
1450.00000,212.62462
1452.00000,219.57680
1454.00000,207.72957
1456.00000,191.27844
1458.00000,195.34236
1460.00000,181.50296
1462.00000,156.86588
1464.00000,137.77975
1466.00000,141.05678
1468.00000,153.01941
1470.00000,113.36886
1472.00000,102.64896
1474.00000,100.52283
1476.00000,68.48125
1478.00000,82.57776
1480.00000,105.11469
1482.00000,111.21119
1484.00000,118.29017
1486.00000,145.17264
1488.00000,165.34271
1490.00000,167.33586
1492.00000,155.30223
1494.00000,147.17696
1496.00000,161.81790
1498.00000,182.66872
1500.00000,192.63864
1502.00000,188.72375
1504.00000,187.42825
1506.00000,207.78120
1508.00000,194.40852
1510.00000,179.44279
1512.00000,193.00813
1514.00000,174.01776
1516.00000,151.56087
1518.00000,120.29683
1520.00000,85.50142
1522.00000,69.14520
1524.00000,54.22527
1526.00000,48.95978
1528.00000,33.84546
1530.00000,15.76966
1532.00000,36.29008
1534.00000,23.62443
1536.00000,9.54430
1538.00000,22.19055
1540.00000,34.05849
1542.00000,35.40007
1544.00000,31.44402
1546.00000,58.63758
1548.00000,83.60939
1550.00000,36.33286
1552.00000,71.19553
1554.00000,55.02216
1556.00000,-1.57134
1558.00000,34.20985
1560.00000,15.24645
1562.00000,17.28736
1564.00000,52.96701
1566.00000,72.65582
1568.00000,72.84384
1570.00000,67.62971
1572.00000,119.19876
1574.00000,161.06110
1576.00000,138.83574
1578.00000,224.09705
1580.00000,280.63885
1582.00000,335.28629
1584.00000,431.15762
1586.00000,478.08359
1588.00000,563.87799
1590.00000,618.21338
1592.00000,661.53809
1594.00000,726.18939
1596.00000,656.11255
1598.00000,679.69159
1600.00000,693.23828
1602.00000,586.61603
1604.00000,516.96893
1606.00000,407.82281
1608.00000,329.56326
1610.00000,278.48148
1612.00000,199.53438
1614.00000,167.76237
1616.00000,121.32484
1618.00000,84.23729
1620.00000,82.24297
1622.00000,66.06094
1624.00000,50.14333
1626.00000,60.65488
1628.00000,76.14775
1630.00000,56.45234
1632.00000,16.75613
1634.00000,20.58062
1636.00000,37.74107
1638.00000,35.38681
1640.00000,42.56094
1642.00000,51.83157
1644.00000,41.35067
1646.00000,16.26932
1648.00000,17.80251
1650.00000,63.50803
1652.00000,28.27360
1654.00000,25.28308
1656.00000,88.66479
1658.00000,65.82798
1660.00000,55.89270
1662.00000,73.62703
1664.00000,99.76568
1666.00000,122.29723
1668.00000,124.92171
1670.00000,113.28063
1672.00000,67.51109
1674.00000,38.74802
1676.00000,86.48238
1678.00000,65.42805
1680.00000,41.82020
1682.00000,31.56022
1684.00000,12.45493
1686.00000,43.69267
1688.00000,18.00084
1690.00000,41.73878
1692.00000,100.63803
1694.00000,36.15381
1696.00000,36.02961
1698.00000,55.21271
1700.00000,47.97114
1702.00000,41.77197
1704.00000,38.46862
1706.00000,20.87825
1708.00000,39.67270
1710.00000,66.24298
1712.00000,41.71068
1714.00000,98.05499
1716.00000,89.84240
1718.00000,47.77889
1720.00000,76.75258
1722.00000,77.08523
1724.00000,64.37243
1726.00000,81.52153
1728.00000,108.86046
1730.00000,95.92662
1732.00000,74.49403
1734.00000,73.69503
1736.00000,71.95538
1738.00000,63.79789
1740.00000,83.76711
1742.00000,53.49879
1744.00000,53.45535
1746.00000,67.06609
1748.00000,11.47360
1750.00000,55.83799
1752.00000,59.67842
1754.00000,53.97853
1756.00000,83.60924
1758.00000,11.24101
1760.00000,59.79939
1762.00000,99.04264
1764.00000,32.59077
1766.00000,7.06197
1768.00000,80.29233
1770.00000,100.49134
1772.00000,66.08300
1774.00000,47.89409
1776.00000,24.68062
1778.00000,52.73336
1780.00000,40.48284
1782.00000,32.22839
1784.00000,106.18548
1786.00000,35.81012
1788.00000,39.97062
1790.00000,72.19144
1792.00000,34.97535
1794.00000,86.86827
1796.00000,93.26765
1798.00000,57.85392
1800.00000,48.06865
1802.00000,62.82692
1804.00000,44.70325
1806.00000,21.91157
1808.00000,27.07869
1810.00000,45.11268
1812.00000,38.62619
1814.00000,34.77998
1816.00000,53.50566
1818.00000,57.10438
1820.00000,23.06179
1822.00000,30.39671
1824.00000,46.79804
1826.00000,30.50238
1828.00000,0.74721
1830.00000,22.35761
1832.00000,100.11115
1834.00000,82.80991
1836.00000,23.81788
1838.00000,70.00849
1840.00000,89.14464
1842.00000,123.69671
1844.00000,142.47725
1846.00000,119.71927
1848.00000,122.39889
1850.00000,123.71211
1852.00000,114.69977
1854.00000,121.92226
1856.00000,139.30690
1858.00000,103.76608
1860.00000,114.92261
1862.00000,135.92545
1864.00000,98.20973
1866.00000,55.50673
1868.00000,73.70741
1870.00000,115.69090
1872.00000,119.16090
1874.00000,84.90204
1876.00000,79.24434
1878.00000,82.40496
1880.00000,70.72789
1882.00000,54.50859
1884.00000,55.79625
1886.00000,61.47691
1888.00000,78.15948
1890.00000,75.17475
1892.00000,37.83970
1894.00000,33.27161
1896.00000,30.30018
1898.00000,44.59211
1900.00000,72.57959
1902.00000,56.52615
1904.00000,23.82565
1906.00000,71.78918
1908.00000,108.56551
1910.00000,58.10708
1912.00000,110.92064
1914.00000,128.04765
1916.00000,90.18731
1918.00000,73.80604
1920.00000,74.57634
1922.00000,14.26063
1924.00000,44.03227
1926.00000,89.46691
1928.00000,29.47933
1930.00000,58.72326
1932.00000,97.28957
1934.00000,73.02254
1936.00000,46.37676
1938.00000,88.07353
1940.00000,72.59347
1942.00000,32.89626
1944.00000,21.04530
1946.00000,51.27652
1948.00000,110.17586
1950.00000,65.96860
1952.00000,42.20364
1954.00000,88.20119
1956.00000,64.26894
1958.00000,33.84512
1960.00000,65.82410
1962.00000,77.26443
1964.00000,34.91772
1966.00000,88.22635
1968.00000,91.71135
1970.00000,74.63866
1972.00000,55.21433
1974.00000,1.37868
1976.00000,83.14443
1978.00000,59.05651
1980.00000,4.68083
1982.00000,71.10761
1984.00000,37.09822
1986.00000,39.72782
1988.00000,32.79096
1990.00000,0.24334
1992.00000,42.27601
1994.00000,75.87609
1996.00000,34.23455
1998.00000,0.16720
2000.00000,22.96622
2002.00000,28.50151
2004.00000,32.72008
2006.00000,30.72239
2008.00000,29.13156
2010.00000,35.48447
2012.00000,40.14986
2014.00000,34.93117
2016.00000,26.71144
2018.00000,29.82850
2020.00000,37.39378
2022.00000,41.73583
2024.00000,37.74225
2026.00000,24.59823
2028.00000,26.58344
2030.00000,34.03505
2032.00000,37.36457
2034.00000,42.17991
2036.00000,34.95782
2038.00000,31.08644
2040.00000,33.83725
2042.00000,35.42089
2044.00000,41.76082
2046.00000,44.38438
2048.00000,38.19068
2050.00000,35.71112
2052.00000,48.92733
2054.00000,45.52132
2056.00000,30.89234
2058.00000,25.49125
2060.00000,29.67352
2062.00000,22.56376
2064.00000,25.24214
2066.00000,33.53568
2068.00000,32.21852
2070.00000,30.65729
2072.00000,36.50079
2074.00000,30.39538
2076.00000,22.32587
2078.00000,39.23005
2080.00000,46.22872
2082.00000,40.69423
2084.00000,44.62936
2086.00000,54.98357
2088.00000,39.58511
2090.00000,54.17862
2092.00000,64.46541
2094.00000,46.52504
2096.00000,48.14030
2098.00000,62.70980
2100.00000,80.82014
2102.00000,82.47702
2104.00000,61.03786
2106.00000,51.77017
2108.00000,59.48929
2110.00000,75.16963
2112.00000,83.08766
2114.00000,71.51052
2116.00000,59.73417
2118.00000,68.81889
2120.00000,85.28248
2122.00000,80.09985
2124.00000,65.75253
2126.00000,72.00289
2128.00000,81.04105
2130.00000,75.95955
2132.00000,83.31730
2134.00000,72.49881
2136.00000,58.69854
2138.00000,63.32943
2140.00000,75.27400
2142.00000,78.33869
2144.00000,66.07609
2146.00000,54.37327
2148.00000,59.13954
2150.00000,66.97378
2152.00000,60.28508
2154.00000,60.94806
2156.00000,77.69761
2158.00000,78.44046
2160.00000,59.13954
2162.00000,56.53931
2164.00000,64.84119
2166.00000,53.29105
2168.00000,49.88809
2170.00000,68.61217
2172.00000,74.96476
2174.00000,63.87459
2176.00000,82.85299
2178.00000,78.51527
2180.00000,60.09180
2182.00000,58.93619
2184.00000,66.53505
2186.00000,50.15541
2188.00000,61.10126
2190.00000,76.58032
2192.00000,60.17299
2194.00000,64.56482
2196.00000,49.63244
2198.00000,35.50602
2200.00000,44.52419
2202.00000,49.94660
2204.00000,47.76035
2206.00000,46.69506
2208.00000,44.73872
2210.00000,36.38615
2212.00000,30.34866
2214.00000,23.42813
2216.00000,27.19428
2218.00000,48.20724
2220.00000,63.62579
2222.00000,42.94930
2224.00000,29.93858
2226.00000,42.45390
2228.00000,47.93443
2230.00000,44.36903
2232.00000,57.21533
2234.00000,60.55566
2236.00000,39.68247
2238.00000,44.62480
2240.00000,54.02250
2242.00000,52.78015
2244.00000,49.77412
2246.00000,52.35556
2248.00000,41.07447
2250.00000,41.60503
2252.00000,52.33667
2254.00000,47.88600
2256.00000,35.30595
2258.00000,43.42396
2260.00000,61.36678
2262.00000,63.35532
2264.00000,49.44187
2266.00000,45.23325
2268.00000,55.54631
2270.00000,58.18150
2272.00000,40.29275
2274.00000,31.61996
2276.00000,30.62539
2278.00000,29.13081
2280.00000,27.93629
2282.00000,32.14840
2284.00000,36.29251
2286.00000,55.36755
2288.00000,70.07572
2290.00000,48.10280
2292.00000,34.57962
2294.00000,45.60207
2296.00000,49.78421
2298.00000,42.18331
2300.00000,70.52048
2302.00000,65.03996
2304.00000,51.99513
2306.00000,77.82807
2308.00000,101.37970
2310.00000,49.09058
2312.00000,50.80244
2314.00000,86.80576
2316.00000,53.28043
2318.00000,50.62125
2320.00000,55.93783
2322.00000,46.62614
2324.00000,41.78744
2326.00000,58.11625
2328.00000,54.59991
2330.00000,50.45127
2332.00000,48.83002
2334.00000,38.33997
2336.00000,59.74878
2338.00000,44.85116
2340.00000,22.41654
2342.00000,47.81744
2344.00000,69.25364
2346.00000,60.79856
2348.00000,54.03733
2350.00000,47.47629
2352.00000,17.49251
2354.00000,32.22701
2356.00000,50.73069
2358.00000,50.22834
2360.00000,47.96207
2362.00000,40.82207
2364.00000,41.98030
2366.00000,38.56195
2368.00000,39.31736
2370.00000,64.40399
2372.00000,42.48973
2374.00000,48.36531
2376.00000,75.34628
2378.00000,52.61161
2380.00000,49.97258
2382.00000,53.40719
2384.00000,44.14767
2386.00000,39.40408
2388.00000,54.78508
2390.00000,31.46265
2392.00000,22.72473
2394.00000,45.93736
2396.00000,44.71658
2398.00000,39.22882
2400.00000,61.73508
2402.00000,57.09589
2404.00000,14.20957
2406.00000,45.99793
2408.00000,50.59138
2410.00000,38.28872
2412.00000,50.32912
2414.00000,53.92969
2416.00000,36.35309
2418.00000,52.10247
2420.00000,61.43011
2422.00000,32.06628
2424.00000,78.34040
2426.00000,52.15543
2428.00000,13.31753
2430.00000,45.90336
2432.00000,50.62458
2434.00000,37.72103
2436.00000,40.75302
2438.00000,47.67968
2440.00000,34.00418
2442.00000,36.47115
2444.00000,50.55563
2446.00000,60.97397
2448.00000,65.01186
2450.00000,64.35480
2452.00000,38.66785
2454.00000,37.37807
2456.00000,69.54539
2458.00000,72.49386
2460.00000,41.15229
2462.00000,39.71360
2464.00000,51.12694
2466.00000,33.58735
2468.00000,38.98464
2470.00000,63.09925
2472.00000,61.69619
2474.00000,37.25261
2476.00000,38.86001
2478.00000,35.22119
2480.00000,23.83766
2482.00000,28.27968
2484.00000,49.25427
2486.00000,46.20057
2488.00000,54.04901
2490.00000,55.68075
2492.00000,30.06513
2494.00000,21.33377
2496.00000,46.35309
2498.00000,31.67563
2500.00000,0.42870
2502.00000,31.25324
2504.00000,24.21932
2506.00000,19.22194
2508.00000,40.13378
2510.00000,47.85667
2512.00000,21.79719
2514.00000,30.30086
2516.00000,30.81301
2518.00000,7.47583
2520.00000,23.02051
2522.00000,33.48653
2524.00000,19.75614
2526.00000,12.25362
2528.00000,26.91388
2530.00000,22.01536
2532.00000,42.97933
2534.00000,85.69784
2536.00000,92.23562
2538.00000,45.10813
2540.00000,48.80925
2542.00000,63.97205
2544.00000,37.62432
2546.00000,14.36786
2548.00000,69.93913
2550.00000,80.75360
2552.00000,47.40152
2554.00000,45.84575
2556.00000,47.29243
2558.00000,9.88005
2560.00000,20.84509
2562.00000,71.51144
2564.00000,50.90923
2566.00000,36.72654
2568.00000,46.87630
2570.00000,43.29558
2572.00000,22.36962
2574.00000,45.97142
2576.00000,72.20725
2578.00000,59.16545
2580.00000,40.31006
2582.00000,58.98684
2584.00000,14.51290
2586.00000,20.22162
2588.00000,62.97602
2590.00000,36.19580
2592.00000,41.67921
2594.00000,44.39544
2596.00000,24.57694
2598.00000,19.23657
2600.00000,49.57428
2602.00000,40.87605
2604.00000,23.65673
2606.00000,43.18082
2608.00000,69.39835
2610.00000,41.14091
2612.00000,39.51264
2614.00000,59.71434
2616.00000,40.22282
2618.00000,12.78384
2620.00000,42.95551
2622.00000,42.64505
2624.00000,8.75101
2626.00000,50.33350
2628.00000,50.76627
2630.00000,24.74726
2632.00000,39.16562
2634.00000,74.27310
2636.00000,31.47894
2638.00000,35.30168
2640.00000,67.83333
2642.00000,51.42666
2644.00000,26.05009
2646.00000,63.22509
2648.00000,39.41378
2650.00000,8.31020
2652.00000,87.58198
2654.00000,48.03894
2656.00000,32.38393
2658.00000,55.84794
2660.00000,40.68231
2662.00000,43.41233
2664.00000,65.24205
2666.00000,48.11320
2668.00000,25.80001
2670.00000,70.94257
2672.00000,71.97723
2674.00000,88.11209
2676.00000,84.05474
2678.00000,22.61605
2680.00000,38.45493
2682.00000,25.71766
2684.00000,14.68269
2686.00000,43.03478
2688.00000,42.82880
2690.00000,45.64005
2692.00000,44.40154
2694.00000,19.42758
2696.00000,-0.95427
2698.00000,46.00137
2700.00000,57.41939
2702.00000,31.30619
2704.00000,22.31054
2706.00000,17.60466
2708.00000,4.19640
2710.00000,2.95034
2712.00000,26.37895
2714.00000,58.93659
2716.00000,73.84278
2718.00000,24.95565
2720.00000,11.38868
2722.00000,82.51872
2724.00000,74.90706
2726.00000,33.01233
2728.00000,33.17968
2730.00000,60.83274
2732.00000,54.17172
2734.00000,59.54277
2736.00000,77.12010
2738.00000,81.45960
2740.00000,67.91274
2742.00000,58.81346
2744.00000,34.42929
2746.00000,22.27507
2748.00000,47.12061
2750.00000,68.71556
2752.00000,34.48280
2754.00000,26.46927
2756.00000,51.59824
2758.00000,42.92871
2760.00000,46.32370
2762.00000,37.22126
2764.00000,14.05960
2766.00000,5.45412
2768.00000,21.98513
2770.00000,45.51360
2772.00000,61.86738
2774.00000,54.77544
2776.00000,29.05128
2778.00000,40.60205
2780.00000,41.02482
2782.00000,40.25621
2784.00000,54.56686
2786.00000,11.94577
2788.00000,-4.15412
2790.00000,37.74135
2792.00000,76.55947
2794.00000,50.54385
2796.00000,19.38191
2798.00000,26.52022
2800.00000,40.71097
2802.00000,17.65238
2804.00000,-3.40937
2806.00000,24.00454
2808.00000,24.87847
2810.00000,4.11401
2812.00000,79.66360
2814.00000,45.21059
2816.00000,15.20463
2818.00000,57.59006
2820.00000,49.42929
2822.00000,9.93015
2824.00000,47.52237
2826.00000,87.57010
2828.00000,47.44598
2830.00000,48.52010
2832.00000,73.41985
2834.00000,61.10813
2836.00000,65.65722
2838.00000,154.91679
2840.00000,133.74791
2842.00000,151.78671
2844.00000,239.97884
2846.00000,268.31848
2848.00000,257.09241
2850.00000,278.26361
2852.00000,327.93979
2854.00000,374.47070
2856.00000,411.06772
2858.00000,412.76706
2860.00000,429.98865
2862.00000,460.41330
2864.00000,451.48703
2866.00000,432.98059
2868.00000,458.34976
2870.00000,468.44116
2872.00000,438.31525
2874.00000,463.94363
2876.00000,462.47015
2878.00000,452.35696
2880.00000,478.25021
2882.00000,498.08759
2884.00000,435.68225
2886.00000,458.43655
2888.00000,481.40570
2890.00000,423.74643
2892.00000,542.39478
2894.00000,560.56232
2896.00000,557.53632
2898.00000,614.28766
2900.00000,580.35004
2902.00000,630.56427
2904.00000,635.66327
2906.00000,590.02972
2908.00000,638.04077
2910.00000,699.07385
2912.00000,625.81451
2914.00000,630.27936
2916.00000,737.32721
2918.00000,611.57330
2920.00000,648.55151
2922.00000,705.85785
2924.00000,660.49518
2926.00000,670.47284
2928.00000,689.98541
2930.00000,632.42883
2932.00000,599.57336
2934.00000,655.59265
2936.00000,628.97729
2938.00000,560.71973
2940.00000,524.17450
2942.00000,508.96570
2944.00000,466.92413
2946.00000,454.16901
2948.00000,463.95694
2950.00000,426.42432
2952.00000,347.95599
2954.00000,364.42151
2956.00000,372.18188
2958.00000,320.40680
2960.00000,278.65015
2962.00000,305.23370
2964.00000,280.28085
2966.00000,241.21840
2968.00000,259.26404
2970.00000,279.26801
2972.00000,171.81711
2974.00000,179.22218
2976.00000,213.82837
2978.00000,143.27815
2980.00000,165.78192
2982.00000,197.10210
2984.00000,150.74202
2986.00000,88.20704
2988.00000,93.92880
2990.00000,62.06310
2992.00000,150.80524
2994.00000,178.39069
2996.00000,30.46122
2998.00000,113.48148
3000.00000,75.38021
3002.00000,22.35579
3004.00000,103.88184
3006.00000,104.57773
3008.00000,19.07108
3010.00000,25.86068
3012.00000,84.29395
3014.00000,54.81038
3016.00000,60.91300
3018.00000,59.21903
3020.00000,30.20764
3022.00000,36.00420
3024.00000,109.39799
3026.00000,106.41879
3028.00000,121.60780
3030.00000,193.40260
3032.00000,215.50363
3034.00000,205.01422
3036.00000,247.74623
3038.00000,273.13943
3040.00000,242.97922
3042.00000,309.10376
3044.00000,376.35535
3046.00000,403.61826
3048.00000,433.94583
3050.00000,507.00763
3052.00000,581.85229
3054.00000,549.06012
3056.00000,510.20059
3058.00000,603.31836
3060.00000,674.15808
3062.00000,605.73529
3064.00000,627.92438
3066.00000,689.88721
3068.00000,449.05338
3070.00000,463.28619
3072.00000,537.34497
3074.00000,438.92325
3076.00000,330.19730
3078.00000,352.00052
3080.00000,289.86819
3082.00000,205.56155
3084.00000,201.42316
3086.00000,124.99265
3088.00000,116.53046
3090.00000,153.38522
3092.00000,154.59857
3094.00000,133.81717
3096.00000,145.18115
3098.00000,105.17641
3100.00000,66.61289
3102.00000,103.95276
3104.00000,95.05476
3106.00000,22.89429
3108.00000,53.06072
3110.00000,138.84302
3112.00000,59.79566
3114.00000,77.68145
3116.00000,132.83124
3118.00000,136.96349
3120.00000,117.69925
3122.00000,84.20483
3124.00000,75.31293
3126.00000,121.47060
3128.00000,135.61845
3130.00000,15.51355
3132.00000,29.54001
3134.00000,131.98326
3136.00000,155.24512
3138.00000,76.28795
3140.00000,29.28274
3142.00000,67.51361
3144.00000,136.19319
3146.00000,156.38286
3148.00000,129.09233
3150.00000,141.48618
3152.00000,68.08161
3154.00000,21.94733
3156.00000,214.61250
3158.00000,168.40652
3160.00000,138.42998
3162.00000,141.57512
3164.00000,41.07142
3166.00000,150.98898
3168.00000,211.70503
3170.00000,95.03329
3172.00000,61.71803
3174.00000,284.43198
3176.00000,96.73916
3178.00000,53.52903
3180.00000,183.59302
3182.00000,6.20481
3184.00000,91.62923
3186.00000,263.71368
3188.00000,177.56850
3190.00000,1.41699
3192.00000,176.04547
3194.00000,45.31442
3196.00000,130.73112
3198.00000,382.35480
3200.00000,105.12999
