300.00000,46.24286
302.00000,32.91435
304.00000,25.23765
306.00000,58.09179
308.00000,103.38422
310.00000,125.29218
312.00000,126.37356
314.00000,118.53379
316.00000,128.95445
318.00000,151.38927
320.00000,151.72366
322.00000,120.22245
324.00000,103.82972
326.00000,107.31844
328.00000,111.39220
330.00000,111.75520
332.00000,114.04356
334.00000,107.28540
336.00000,98.73675
338.00000,100.65455
340.00000,102.48487
342.00000,108.54549
344.00000,120.78889
346.00000,135.77020
348.00000,152.47656
350.00000,180.38782
352.00000,225.82112
354.00000,268.36963
356.00000,292.78751
358.00000,312.02414
360.00000,293.22763
362.00000,242.78317
364.00000,201.21184
366.00000,181.69388
368.00000,131.59381
370.00000,91.20047
372.00000,87.54714
374.00000,99.08858
376.00000,96.71331
378.00000,77.56505
380.00000,62.65753
382.00000,58.28110
384.00000,58.25472
386.00000,79.71442
388.00000,87.10226
390.00000,76.44451
392.00000,89.25393
394.00000,147.43549
396.00000,180.42636
398.00000,194.51677
400.00000,217.45227
402.00000,240.28178
404.00000,246.51904
406.00000,238.77995
408.00000,228.61464
410.00000,222.43115
412.00000,220.42305
414.00000,233.82231
416.00000,252.88997
418.00000,286.44077
420.00000,341.53943
422.00000,367.70938
424.00000,404.93137
426.00000,471.81863
428.00000,544.17163
430.00000,607.60052
432.00000,690.70764
434.00000,784.04761
436.00000,868.20721
438.00000,933.90326
440.00000,971.26788
442.00000,1005.85272
444.00000,1049.31836
446.00000,1082.29114
448.00000,1075.63904
450.00000,1031.86267
452.00000,971.55280
454.00000,904.98242
456.00000,835.27393
458.00000,774.74060
460.00000,694.20160
462.00000,599.81061
464.00000,523.97113
466.00000,471.61533
468.00000,402.47134
470.00000,323.20773
472.00000,250.26457
474.00000,184.95822
476.00000,131.43208
478.00000,97.04169
480.00000,82.09052
482.00000,82.61035
484.00000,89.47035
486.00000,78.22733
488.00000,59.43603
490.00000,49.60344
492.00000,50.84546
494.00000,56.82689
496.00000,56.41755
498.00000,64.86501
500.00000,84.27302
502.00000,84.12210
504.00000,66.13156
506.00000,52.98587
508.00000,48.72438
510.00000,42.36353
512.00000,38.74302
514.00000,39.82948
516.00000,41.92680
518.00000,47.83080
520.00000,62.38870
522.00000,65.20104
524.00000,62.17619
526.00000,63.10154
528.00000,66.55090
530.00000,65.88718
532.00000,53.86042
534.00000,42.44485
536.00000,43.10934
538.00000,51.91390
540.00000,65.69558
542.00000,71.45814
544.00000,70.81819
546.00000,77.26936
548.00000,89.40825
550.00000,85.08905
552.00000,73.51807
554.00000,68.10812
556.00000,68.83804
558.00000,94.16604
560.00000,116.44495
562.00000,110.77920
564.00000,96.96778
566.00000,116.66929
568.00000,126.30869
570.00000,143.02527
572.00000,177.92004
574.00000,193.51106
576.00000,204.46896
578.00000,212.84581
580.00000,242.20134
582.00000,299.01248
584.00000,327.64474
586.00000,330.08276
588.00000,360.53192
590.00000,434.01987
592.00000,503.26324
594.00000,553.56958
596.00000,614.66022
598.00000,670.12531
600.00000,697.41119
602.00000,738.12701
604.00000,785.06854
606.00000,808.83545
608.00000,813.22034
610.00000,822.92206
612.00000,814.06024
614.00000,819.20947
616.00000,843.27344
618.00000,847.26257
620.00000,807.70331
622.00000,763.41992
624.00000,695.28784
626.00000,583.11670
628.00000,456.77881
630.00000,353.63925
632.00000,281.51898
634.00000,235.11098
636.00000,212.60576
638.00000,214.34251
640.00000,220.51398
642.00000,227.32312
644.00000,218.35077
646.00000,173.08282
648.00000,124.31741
650.00000,101.28257
652.00000,78.98071
654.00000,38.19151
656.00000,19.47883
658.00000,23.37803
660.00000,29.32417
662.00000,34.81446
664.00000,46.98056
666.00000,42.75008
668.00000,35.79583
670.00000,43.36682
672.00000,61.37394
674.00000,70.20354
676.00000,68.30797
678.00000,63.46231
680.00000,60.74892
682.00000,62.46471
684.00000,70.50838
686.00000,57.03896
688.00000,55.59215
690.00000,76.91052
692.00000,52.64600
694.00000,26.84201
696.00000,22.81999
698.00000,31.22491
700.00000,38.00843
702.00000,41.40422
704.00000,46.57942
706.00000,64.00597
708.00000,79.57183
710.00000,65.10667
712.00000,68.67632
714.00000,78.99115
716.00000,70.24001
718.00000,47.95551
720.00000,34.27870
722.00000,38.93990
724.00000,34.89680
726.00000,12.58759
728.00000,10.23675
730.00000,31.59356
732.00000,49.33317
734.00000,54.25675
736.00000,56.03089
738.00000,49.39934
740.00000,53.04844
742.00000,51.80159
744.00000,34.31376
746.00000,30.91206
748.00000,53.75266
750.00000,68.10164
752.00000,58.88199
754.00000,53.62446
756.00000,73.46626
758.00000,72.24059
760.00000,63.16346
762.00000,67.61786
764.00000,59.34420
766.00000,52.77869
768.00000,65.83411
770.00000,67.08072
772.00000,42.29832
774.00000,68.57981
776.00000,93.90090
778.00000,101.26734
780.00000,100.17137
782.00000,85.58120
784.00000,91.11781
786.00000,96.89619
788.00000,80.55587
790.00000,53.20819
792.00000,49.23050
794.00000,102.88772
796.00000,160.92032
798.00000,196.84938
800.00000,248.94847
802.00000,248.80183
804.00000,196.81584
806.00000,139.94208
808.00000,105.91935
810.00000,76.49191
812.00000,52.32574
814.00000,45.92653
816.00000,61.43800
818.00000,86.81442
820.00000,105.46077
822.00000,101.55013
824.00000,120.84451
826.00000,167.85646
828.00000,128.89189
830.00000,102.79787
832.00000,99.42809
834.00000,83.33970
836.00000,69.97453
838.00000,61.09373
840.00000,51.59943
842.00000,55.37808
844.00000,77.18681
846.00000,80.55103
848.00000,58.71561
850.00000,55.90982
852.00000,63.24945
854.00000,31.73235
856.00000,34.36803
858.00000,39.18885
860.00000,35.64632
862.00000,40.76646
864.00000,27.63621
866.00000,11.23242
868.00000,15.65519
870.00000,38.56263
872.00000,55.12534
874.00000,57.38038
876.00000,36.77933
878.00000,25.99381
880.00000,41.26387
882.00000,37.91309
884.00000,56.55521
886.00000,53.34534
888.00000,20.18993
890.00000,27.26589
892.00000,61.48184
894.00000,80.94316
896.00000,91.61100
898.00000,103.71614
900.00000,90.40954
902.00000,109.67990
904.00000,140.06604
906.00000,153.98068
908.00000,163.44902
910.00000,155.09221
912.00000,169.05661
914.00000,182.63164
916.00000,174.28394
918.00000,197.56671
920.00000,199.95207
922.00000,159.84914
924.00000,117.57255
926.00000,113.65305
928.00000,110.67731
930.00000,85.94790
932.00000,79.94817
934.00000,102.33117
936.00000,85.90337
938.00000,79.56185
940.00000,90.83583
942.00000,101.61629
944.00000,108.00123
946.00000,113.05116
948.00000,117.68707
950.00000,142.83212
952.00000,174.09308
954.00000,152.21400
956.00000,123.99435
958.00000,109.77998
960.00000,100.39467
962.00000,90.23351
964.00000,88.22081
966.00000,89.37582
968.00000,82.99444
970.00000,73.48779
972.00000,77.24395
974.00000,77.00560
976.00000,71.54301
978.00000,73.67156
980.00000,80.62606
982.00000,66.77322
984.00000,82.07724
986.00000,130.03682
988.00000,164.53175
990.00000,170.63495
992.00000,220.09201
994.00000,325.00412
996.00000,469.23926
998.00000,639.41882
1000.00000,786.16766
1002.00000,763.00293
1004.00000,637.82275
1006.00000,518.02649
1008.00000,370.85883
1010.00000,274.42068
1012.00000,214.74327
1014.00000,189.65034
1016.00000,211.37177
1018.00000,210.80191
1020.00000,209.28548
1022.00000,207.23033
1024.00000,203.41562
1026.00000,230.04839
1028.00000,277.36032
1030.00000,295.54007
1032.00000,266.22873
1034.00000,225.13164
1036.00000,207.80176
1038.00000,161.90956
1040.00000,130.37410
1042.00000,132.15369
1044.00000,98.52379
1046.00000,95.46481
1048.00000,93.69389
1050.00000,73.52561
1052.00000,68.46228
1054.00000,88.66702
1056.00000,93.69471
1058.00000,90.87273
1060.00000,124.55350
1062.00000,198.38438
1064.00000,228.31505
1066.00000,257.81375
1068.00000,280.20880
1070.00000,253.98419
1072.00000,239.65208
1074.00000,209.46382
1076.00000,204.15369
1078.00000,273.58887
1080.00000,404.27344
1082.00000,584.51300
1084.00000,780.05847
1086.00000,908.50812
1088.00000,903.28455
1090.00000,799.15912
1092.00000,671.03760
1094.00000,561.19543
1096.00000,469.05042
1098.00000,376.15823
1100.00000,286.83673
1102.00000,258.62607
1104.00000,261.33762
1106.00000,225.00061
1108.00000,182.76477
1110.00000,190.91855
1112.00000,200.29491
1114.00000,183.89156
1116.00000,179.09769
1118.00000,136.05525
1120.00000,119.40437
1122.00000,141.23227
1124.00000,142.55574
1126.00000,110.36833
1128.00000,94.13876
1130.00000,89.55641
1132.00000,69.54073
1134.00000,45.91066
1136.00000,62.09309
1138.00000,66.13607
1140.00000,52.14568
1142.00000,53.94690
1144.00000,59.31536
1146.00000,72.17180
1148.00000,89.48011
1150.00000,127.63360
1152.00000,208.72227
1154.00000,298.66757
1156.00000,390.60504
1158.00000,451.38956
1160.00000,451.54449
1162.00000,413.18903
1164.00000,340.30093
1166.00000,312.88467
1168.00000,339.16531
1170.00000,333.38361
1172.00000,302.38559
1174.00000,260.66074
1176.00000,237.24800
1178.00000,239.41840
1180.00000,231.93910
1182.00000,227.33086
1184.00000,206.51480
1186.00000,171.05373
1188.00000,154.76759
1190.00000,152.98837
1192.00000,159.76933
1194.00000,157.88286
1196.00000,152.38498
1198.00000,169.65494
1200.00000,146.63615
1202.00000,124.23578
1204.00000,132.63683
1206.00000,117.72369
1208.00000,49.90519
1210.00000,47.77038
1212.00000,63.41563
1214.00000,25.14500
1216.00000,27.77475
1218.00000,23.47685
1220.00000,11.76537
1222.00000,12.78261
1224.00000,22.30915
1226.00000,29.45242
1228.00000,16.67770
1230.00000,8.26715
1232.00000,25.51405
1234.00000,47.02014
1236.00000,84.91380
1238.00000,169.91670
1240.00000,264.47977
1242.00000,336.36420
1244.00000,477.59784
1246.00000,544.50964
1248.00000,577.84418
1250.00000,695.57794
1252.00000,860.16125
1254.00000,1066.05298
1256.00000,1359.60901
1258.00000,1694.99365
1260.00000,1980.75879
1262.00000,2213.87988
1264.00000,2157.45215
1266.00000,1872.21899
1268.00000,1502.39563
1270.00000,1035.53125
1272.00000,712.55518
1274.00000,484.24191
1276.00000,282.57101
1278.00000,160.25972
1280.00000,117.71721
1282.00000,95.22751
1284.00000,72.71660
1286.00000,86.85253
1288.00000,157.55493
1290.00000,193.41301
1292.00000,238.94464
1294.00000,332.20062
1296.00000,421.37784
1298.00000,445.69510
1300.00000,435.94141
1302.00000,399.40289
1304.00000,351.45743
1306.00000,358.73477
1308.00000,458.53479
1310.00000,595.33673
1312.00000,776.30957
1314.00000,1060.12244
1316.00000,1434.73047
1318.00000,1936.42700
1320.00000,2512.58203
1322.00000,3071.42456
1324.00000,3535.97778
1326.00000,3784.93140
1328.00000,3845.42383
1330.00000,3838.08618
1332.00000,3779.52539
1334.00000,3514.23877
1336.00000,3173.46997
1338.00000,2782.64917
1340.00000,2341.57666
1342.00000,1969.21118
1344.00000,1760.91833
1346.00000,1713.74475
1348.00000,1796.59717
1350.00000,1911.66272
1352.00000,1869.10498
1354.00000,1685.44287
1356.00000,1402.92615
1358.00000,1107.58728
1360.00000,906.12500
1362.00000,741.58197
1364.00000,557.77722
1366.00000,395.91888
1368.00000,303.94632
1370.00000,223.71826
1372.00000,156.77400
1374.00000,98.02505
1376.00000,52.48938
1378.00000,40.27402
1380.00000,37.98760
1382.00000,19.03701
1384.00000,36.07302
1386.00000,83.96394
1388.00000,36.30056
1390.00000,110.71304
1392.00000,225.61272
1394.00000,284.62189
1396.00000,400.48309
1398.00000,557.08008
1400.00000,671.09479
1402.00000,739.21429
1404.00000,763.41376
1406.00000,666.37189
1408.00000,547.97906
1410.00000,418.27765
1412.00000,290.15866
1414.00000,217.91379
1416.00000,146.20287
1418.00000,131.46454
1420.00000,121.33778
1422.00000,70.93546
1424.00000,98.27590
1426.00000,101.97064
1428.00000,79.07950
1430.00000,79.73054
1432.00000,105.64223
1434.00000,140.73439
1436.00000,207.97585
1438.00000,226.06445
1440.00000,162.30632
1442.00000,165.18697
1444.00000,195.64032
1446.00000,182.33414
1448.00000,154.74741
1450.00000,172.77007
1452.00000,152.43109
1454.00000,148.93764
1456.00000,160.74083
1458.00000,149.06793
1460.00000,140.29301
1462.00000,110.74013
1464.00000,66.18693
1466.00000,51.99167
1468.00000,67.12778
1470.00000,12.02570
1472.00000,41.84222
1474.00000,74.73724
1476.00000,35.91821
1478.00000,118.93535
1480.00000,126.99489
1482.00000,175.46393
1484.00000,307.73053
1486.00000,373.91528
1488.00000,438.37534
1490.00000,486.61758
1492.00000,508.49280
1494.00000,520.02783
1496.00000,540.69348
1498.00000,607.48206
1500.00000,636.60107
1502.00000,658.74414
1504.00000,743.73462
1506.00000,719.20734
1508.00000,747.53430
1510.00000,753.99115
1512.00000,664.93878
1514.00000,651.25995
1516.00000,501.57883
1518.00000,361.66217
1520.00000,291.77231
1522.00000,168.40556
1524.00000,96.16988
1526.00000,56.01012
1528.00000,22.66666
1530.00000,2.14584
1532.00000,7.22695
1534.00000,52.08094
1536.00000,44.10579
1538.00000,38.96667
1540.00000,129.69627
1542.00000,138.97389
1544.00000,154.54321
1546.00000,180.28848
1548.00000,168.39706
1550.00000,162.66919
1552.00000,180.24965
1554.00000,149.30583
1556.00000,98.95290
1558.00000,88.51947
1560.00000,25.80995
1562.00000,58.75272
1564.00000,106.20399
1566.00000,127.37318
1568.00000,263.90833
1570.00000,272.96530
1572.00000,340.29224
1574.00000,520.36530
1576.00000,640.17426
1578.00000,750.61975
1580.00000,939.64758
1582.00000,1199.45874
1584.00000,1495.92395
1586.00000,1834.11292
1588.00000,2190.09521
1590.00000,2539.95923
1592.00000,2725.51929
1594.00000,2666.98682
1596.00000,2607.09912
1598.00000,2494.41138
1600.00000,2237.32788
1602.00000,1911.81958
1604.00000,1659.41870
1606.00000,1355.67871
1608.00000,1102.77539
1610.00000,883.99713
1612.00000,633.75061
1614.00000,503.32678
1616.00000,317.54968
1618.00000,255.19093
1620.00000,288.60803
1622.00000,103.01686
1624.00000,158.01433
1626.00000,186.22090
1628.00000,100.95996
1630.00000,119.71129
1632.00000,154.03751
1634.00000,122.47781
1636.00000,96.74360
1638.00000,92.30782
1640.00000,40.23286
1642.00000,76.44854
1644.00000,119.85491
1646.00000,98.23149
1648.00000,50.56290
1650.00000,33.87737
1652.00000,56.02343
1654.00000,86.13522
1656.00000,98.47458
1658.00000,101.63528
1660.00000,126.75484
1662.00000,182.74275
1664.00000,269.11246
1666.00000,325.62375
1668.00000,256.54718
1670.00000,213.66672
1672.00000,193.59050
1674.00000,142.04002
1676.00000,90.79442
1678.00000,63.76124
1680.00000,53.74542
1682.00000,33.55125
1684.00000,23.23722
1686.00000,76.09082
1688.00000,51.34948
1690.00000,32.81655
1692.00000,52.38647
1694.00000,8.57877
1696.00000,17.58171
1698.00000,31.65232
1700.00000,16.93500
1702.00000,12.93173
1704.00000,44.72231
1706.00000,66.33841
1708.00000,65.53371
1710.00000,83.11966
1712.00000,131.33446
1714.00000,113.91033
1716.00000,90.07150
1718.00000,126.93458
1720.00000,170.33904
1722.00000,120.07648
1724.00000,137.12126
1726.00000,170.37198
1728.00000,161.71710
1730.00000,167.90137
1732.00000,163.39626
1734.00000,131.36642
1736.00000,114.86189
1738.00000,139.13477
1740.00000,141.09221
1742.00000,83.89832
1744.00000,114.25138
1746.00000,142.28140
1748.00000,5.70957
1750.00000,67.85720
1752.00000,172.58769
1754.00000,109.08039
1756.00000,19.53672
1758.00000,167.21634
1760.00000,78.36342
1762.00000,37.25381
1764.00000,117.97861
1766.00000,32.32279
1768.00000,111.46598
1770.00000,78.59377
1772.00000,28.00216
1774.00000,107.60243
1776.00000,62.87777
1778.00000,110.45818
1780.00000,98.67118
1782.00000,35.08393
1784.00000,87.84088
1786.00000,17.85113
1788.00000,60.93962
1790.00000,97.89185
1792.00000,38.52894
1794.00000,157.88245
1796.00000,125.11877
1798.00000,54.45105
1800.00000,111.92865
1802.00000,158.80771
1804.00000,23.29240
1806.00000,141.64760
1808.00000,217.67593
1810.00000,56.94216
1812.00000,157.02254
1814.00000,64.60602
1816.00000,67.56335
1818.00000,172.44402
1820.00000,77.93520
1822.00000,134.95396
1824.00000,87.23069
1826.00000,38.63834
1828.00000,100.01324
1830.00000,35.74884
1832.00000,67.08733
1834.00000,95.46993
1836.00000,74.42110
1838.00000,107.72311
1840.00000,143.48270
1842.00000,119.22484
1844.00000,108.12504
1846.00000,141.26889
1848.00000,133.81712
1850.00000,148.94341
1852.00000,137.09390
1854.00000,109.51125
1856.00000,121.84334
1858.00000,124.78563
1860.00000,177.08450
1862.00000,127.58367
1864.00000,3.51496
1866.00000,82.42126
1868.00000,138.93742
1870.00000,116.93313
1872.00000,84.68709
1874.00000,88.45487
1876.00000,102.86746
1878.00000,68.65454
1880.00000,94.06354
1882.00000,136.90215
1884.00000,22.13371
1886.00000,54.98680
1888.00000,134.73180
1890.00000,130.12663
1892.00000,97.81461
1894.00000,123.05907
1896.00000,150.24165
1898.00000,69.18332
1900.00000,12.55046
1902.00000,163.65564
1904.00000,103.14685
1906.00000,46.76374
1908.00000,114.58623
1910.00000,126.45752
1912.00000,42.50144
1914.00000,67.40707
1916.00000,109.92319
1918.00000,94.05896
1920.00000,129.16814
1922.00000,109.15395
1924.00000,26.86054
1926.00000,16.17018
1928.00000,134.63210
1930.00000,203.65797
1932.00000,153.97064
1934.00000,104.00352
1936.00000,121.33184
1938.00000,145.07280
1940.00000,185.93922
1942.00000,142.88205
1944.00000,127.14254
1946.00000,205.56703
1948.00000,136.76114
1950.00000,132.66185
1952.00000,134.86008
1954.00000,128.64838
1956.00000,220.61143
1958.00000,154.35219
1960.00000,156.05779
1962.00000,157.10655
1964.00000,60.27114
1966.00000,161.64706
1968.00000,51.25156
1970.00000,67.73246
1972.00000,229.78888
1974.00000,74.57900
1976.00000,107.67121
1978.00000,172.73027
1980.00000,92.34541
1982.00000,42.90258
1984.00000,207.88792
1986.00000,91.94839
1988.00000,14.52679
1990.00000,130.84375
1992.00000,88.21580
1994.00000,71.73348
1996.00000,73.41778
1998.00000,53.77634
2000.00000,105.96322
2002.00000,123.63398
2004.00000,125.19368
2006.00000,116.94217
2008.00000,139.61337
2010.00000,160.37399
2012.00000,146.32364
2014.00000,130.53134
2016.00000,155.10574
2018.00000,163.23531
2020.00000,157.82333
2022.00000,156.49214
2024.00000,156.85500
2026.00000,151.35771
2028.00000,175.74181
2030.00000,190.66505
2032.00000,160.02824
2034.00000,122.22933
2036.00000,136.99875
2038.00000,133.40712
2040.00000,108.52103
2042.00000,112.25406
2044.00000,118.60162
2046.00000,138.85741
2048.00000,138.75648
2050.00000,116.68628
2052.00000,126.53778
2054.00000,131.34656
2056.00000,128.19084
2058.00000,135.49602
2060.00000,148.70593
2062.00000,133.38823
2064.00000,119.00990
2066.00000,116.55424
2068.00000,113.20958
2070.00000,104.34500
2072.00000,94.68861
2074.00000,98.98655
2076.00000,99.53883
2078.00000,80.80437
2080.00000,102.80865
2082.00000,111.43150
2084.00000,89.59409
2086.00000,70.64373
2088.00000,62.71102
2090.00000,69.28246
2092.00000,75.89864
2094.00000,79.11389
2096.00000,87.75723
2098.00000,83.14309
2100.00000,96.71168
2102.00000,108.09324
2104.00000,82.22542
2106.00000,74.95487
2108.00000,100.63043
2110.00000,102.87230
2112.00000,72.84513
2114.00000,84.61454
2116.00000,109.27198
2118.00000,104.48315
2120.00000,85.50146
2122.00000,97.87241
2124.00000,127.64192
2126.00000,126.44404
2128.00000,117.36594
2130.00000,130.54031
2132.00000,127.44411
2134.00000,116.55832
2136.00000,103.91009
2138.00000,105.40823
2140.00000,132.11143
2142.00000,139.69850
2144.00000,129.40179
2146.00000,134.96552
2148.00000,154.87909
2150.00000,134.35031
2152.00000,124.31393
2154.00000,142.44160
2156.00000,146.48615
2158.00000,111.13971
2160.00000,118.06440
2162.00000,118.36945
2164.00000,107.60809
2166.00000,124.01886
2168.00000,105.97934
2170.00000,111.66798
2172.00000,131.80492
2174.00000,125.84883
2176.00000,118.01859
2178.00000,125.58150
2180.00000,115.81015
2182.00000,107.72637
2184.00000,144.67245
2186.00000,152.08492
2188.00000,130.00964
2190.00000,104.93093
2192.00000,106.42435
2194.00000,151.59215
2196.00000,164.85922
2198.00000,138.48407
2200.00000,117.86411
2202.00000,124.34584
2204.00000,120.41541
2206.00000,122.05639
2208.00000,135.03745
2210.00000,146.01878
2212.00000,159.73761
2214.00000,152.29428
2216.00000,117.55502
2218.00000,97.03143
2220.00000,130.80475
2222.00000,138.21605
2224.00000,117.49543
2226.00000,125.46245
2228.00000,166.10130
2230.00000,141.28192
2232.00000,121.05129
2234.00000,131.23262
2236.00000,133.10828
2238.00000,121.35368
2240.00000,130.14171
2242.00000,124.22209
2244.00000,98.51413
2246.00000,100.20297
2248.00000,103.78591
2250.00000,88.45277
2252.00000,97.54826
2254.00000,132.83398
2256.00000,94.03377
2258.00000,97.26663
2260.00000,113.12472
2262.00000,82.97588
2264.00000,66.75988
2266.00000,94.01504
2268.00000,99.02904
2270.00000,88.03102
2272.00000,107.85032
2274.00000,96.96370
2276.00000,87.31010
2278.00000,96.90578
2280.00000,101.75668
2282.00000,83.84280
2284.00000,83.89081
2286.00000,96.07115
2288.00000,85.39275
2290.00000,50.84783
2292.00000,55.18991
2294.00000,85.56409
2296.00000,81.27092
2298.00000,49.44350
2300.00000,80.68576
2302.00000,83.55136
2304.00000,80.99278
2306.00000,89.61620
2308.00000,55.27062
2310.00000,43.51707
2312.00000,72.72811
2314.00000,92.49881
2316.00000,73.17439
2318.00000,73.45006
2320.00000,73.66455
2322.00000,82.38838
2324.00000,86.49557
2326.00000,58.42200
2328.00000,121.77831
2330.00000,122.00717
2332.00000,54.04203
2334.00000,75.20412
2336.00000,82.00767
2338.00000,79.86396
2340.00000,85.28924
2342.00000,87.93511
2344.00000,80.37935
2346.00000,68.49370
2348.00000,93.45292
2350.00000,101.39892
2352.00000,30.04078
2354.00000,60.88418
2356.00000,100.84492
2358.00000,66.40968
2360.00000,22.17275
2362.00000,55.48570
2364.00000,64.67627
2366.00000,59.33758
2368.00000,72.94303
2370.00000,58.12318
2372.00000,17.62132
2374.00000,16.04165
2376.00000,31.86324
2378.00000,9.99330
2380.00000,14.08697
2382.00000,22.55476
2384.00000,15.88708
2386.00000,0.88325
2388.00000,-2.36619
2390.00000,37.98335
2392.00000,44.66405
2394.00000,14.38769
2396.00000,19.66649
2398.00000,10.00943
2400.00000,27.16594
2402.00000,44.93246
2404.00000,34.36090
2406.00000,57.78820
2408.00000,35.98999
2410.00000,18.52692
2412.00000,53.73812
2414.00000,83.55212
2416.00000,77.69144
2418.00000,51.28041
2420.00000,57.86312
2422.00000,93.29823
2424.00000,59.68493
2426.00000,69.39359
2428.00000,121.98206
2430.00000,107.58409
2432.00000,19.82157
2434.00000,89.01729
2436.00000,115.57313
2438.00000,38.45871
2440.00000,38.22382
2442.00000,50.24103
2444.00000,32.82602
2446.00000,40.50365
2448.00000,86.98640
2450.00000,74.52320
2452.00000,43.68293
2454.00000,76.38744
2456.00000,116.54740
2458.00000,59.80778
2460.00000,48.82129
2462.00000,78.58286
2464.00000,101.42590
2466.00000,108.92613
2468.00000,106.76692
2470.00000,56.96911
2472.00000,46.27632
2474.00000,95.45575
2476.00000,92.39197
2478.00000,81.22382
2480.00000,99.06178
2482.00000,103.16894
2484.00000,66.75594
2486.00000,74.50774
2488.00000,45.36227
2490.00000,69.26258
2492.00000,139.47466
2494.00000,46.98422
2496.00000,54.10351
2498.00000,75.85754
2500.00000,36.63691
2502.00000,41.41927
2504.00000,51.25679
2506.00000,48.91719
2508.00000,34.93372
2510.00000,21.86913
2512.00000,31.81062
2514.00000,55.99579
2516.00000,48.77647
2518.00000,32.08386
2520.00000,58.27518
2522.00000,25.34858
2524.00000,1.38889
2526.00000,21.29547
2528.00000,42.29262
2530.00000,58.53834
2532.00000,56.24648
2534.00000,36.70630
2536.00000,18.52159
2538.00000,19.98499
2540.00000,33.91453
2542.00000,33.88621
2544.00000,12.85985
2546.00000,5.71298
2548.00000,49.91184
2550.00000,37.06067
2552.00000,22.49915
2554.00000,58.76571
2556.00000,21.81542
2558.00000,-2.77731
2560.00000,5.95135
2562.00000,35.49664
2564.00000,65.68994
2566.00000,17.66683
2568.00000,6.98732
2570.00000,43.81144
2572.00000,54.28131
2574.00000,65.13256
2576.00000,52.46014
2578.00000,22.94195
2580.00000,16.32026
2582.00000,40.28609
2584.00000,18.40552
2586.00000,24.55886
2588.00000,65.82443
2590.00000,58.50832
2592.00000,12.78565
2594.00000,19.44016
2596.00000,49.08998
2598.00000,46.83151
2600.00000,42.29379
2602.00000,18.56333
2604.00000,8.11362
2606.00000,26.92400
2608.00000,45.05713
2610.00000,46.11996
2612.00000,50.94696
2614.00000,56.39058
2616.00000,58.64050
2618.00000,78.65793
2620.00000,72.59486
2622.00000,66.65444
2624.00000,76.58678
2626.00000,75.70222
2628.00000,92.19958
2630.00000,60.67927
2632.00000,71.41672
2634.00000,157.60153
2636.00000,62.74949
2638.00000,72.68978
2640.00000,143.12260
2642.00000,99.51799
2644.00000,47.68680
2646.00000,139.39514
2648.00000,138.48862
2650.00000,52.35092
2652.00000,103.17182
2654.00000,114.97996
2656.00000,69.95419
2658.00000,58.22044
2660.00000,104.39636
2662.00000,119.71570
2664.00000,118.24001
2666.00000,132.41402
2668.00000,114.92886
2670.00000,50.28423
2672.00000,129.06776
2674.00000,126.64900
2676.00000,53.94625
2678.00000,78.35325
2680.00000,87.47366
2682.00000,52.04487
2684.00000,19.51641
2686.00000,31.72972
2688.00000,57.77714
2690.00000,14.22252
2692.00000,16.94139
2694.00000,61.71553
2696.00000,37.25088
2698.00000,2.80590
2700.00000,11.83930
2702.00000,19.64986
2704.00000,7.06919
2706.00000,33.70769
2708.00000,29.28586
2710.00000,17.02057
2712.00000,22.24775
2714.00000,22.69781
2716.00000,29.02654
2718.00000,70.23574
2720.00000,89.42896
2722.00000,43.32722
2724.00000,12.43462
2726.00000,33.57577
2728.00000,94.84080
2730.00000,104.14220
2732.00000,18.01549
2734.00000,52.88797
2736.00000,123.23572
2738.00000,139.02045
2740.00000,114.27241
2742.00000,58.02680
2744.00000,44.80274
2746.00000,107.32639
2748.00000,150.40906
2750.00000,74.20641
2752.00000,81.24184
2754.00000,100.07832
2756.00000,69.79342
2758.00000,72.14653
2760.00000,116.69578
2762.00000,53.45286
2764.00000,37.30247
2766.00000,142.87529
2768.00000,87.45345
2770.00000,71.48313
2772.00000,93.78247
2774.00000,58.62629
2776.00000,1.03888
2778.00000,41.27565
2780.00000,72.97002
2782.00000,31.60588
2784.00000,-0.09075
2786.00000,62.56461
2788.00000,56.25788
2790.00000,37.87346
2792.00000,56.56824
2794.00000,9.46244
2796.00000,-17.31706
2798.00000,44.61314
2800.00000,74.65636
2802.00000,12.92210
2804.00000,97.95971
2806.00000,56.57837
2808.00000,12.04487
2810.00000,123.51024
2812.00000,143.48311
2814.00000,81.29405
2816.00000,19.13358
2818.00000,-0.73779
2820.00000,31.74313
2822.00000,121.31369
2824.00000,78.01534
2826.00000,14.78624
2828.00000,107.08091
2830.00000,176.01067
2832.00000,86.08950
2834.00000,118.71684
2836.00000,232.90527
2838.00000,103.01271
2840.00000,197.90144
2842.00000,306.19855
2844.00000,258.11041
2846.00000,233.28751
2848.00000,363.13254
2850.00000,352.36530
2852.00000,369.34897
2854.00000,507.22852
2856.00000,458.09915
2858.00000,435.34906
2860.00000,472.81613
2862.00000,522.73871
2864.00000,546.20465
2866.00000,476.12305
2868.00000,480.09216
2870.00000,516.46356
2872.00000,509.14828
2874.00000,566.36713
2876.00000,567.65668
2878.00000,515.19653
2880.00000,503.68103
2882.00000,548.52002
2884.00000,519.71252
2886.00000,532.68036
2888.00000,544.89642
2890.00000,478.24734
2892.00000,506.91254
2894.00000,620.29169
2896.00000,613.14142
2898.00000,506.71304
2900.00000,559.59222
2902.00000,637.08984
2904.00000,683.73669
2906.00000,668.48712
2908.00000,620.19666
2910.00000,679.29089
2912.00000,662.63837
2914.00000,643.48981
2916.00000,732.39758
2918.00000,775.21112
2920.00000,712.62506
2922.00000,726.85895
2924.00000,797.60297
2926.00000,729.45685
2928.00000,661.50366
2930.00000,784.53894
2932.00000,829.84521
2934.00000,644.52808
2936.00000,669.07202
2938.00000,772.04596
2940.00000,633.78973
2942.00000,474.32745
2944.00000,646.50159
2946.00000,401.05597
2948.00000,343.97308
2950.00000,521.65765
2952.00000,408.55756
2954.00000,265.77219
2956.00000,331.59500
2958.00000,359.20557
2960.00000,239.09445
2962.00000,262.30774
2964.00000,279.11182
2966.00000,286.37317
2968.00000,269.75690
2970.00000,207.04312
2972.00000,232.78185
2974.00000,191.46936
2976.00000,206.38815
2978.00000,257.53958
2980.00000,22.80590
2982.00000,120.17118
2984.00000,157.81294
2986.00000,-8.86757
2988.00000,75.54786
2990.00000,75.87368
2992.00000,52.17173
2994.00000,50.62188
2996.00000,72.48530
2998.00000,198.60211
3000.00000,88.89346
3002.00000,37.15140
3004.00000,138.02657
3006.00000,12.37131
3008.00000,57.64800
3010.00000,154.74187
3012.00000,99.16687
3014.00000,39.19729
3016.00000,262.82806
3018.00000,202.88786
3020.00000,32.07212
3022.00000,140.53172
3024.00000,282.51358
3026.00000,239.83868
3028.00000,194.62303
3030.00000,256.62872
3032.00000,298.52246
3034.00000,274.51801
3036.00000,245.63658
3038.00000,329.86676
3040.00000,452.21878
3042.00000,370.17514
3044.00000,407.11688
3046.00000,470.52380
3048.00000,455.03125
3050.00000,519.53979
3052.00000,623.47644
3054.00000,663.62573
3056.00000,630.62421
3058.00000,623.96576
3060.00000,702.29065
3062.00000,634.76678
3064.00000,495.04187
3066.00000,465.72791
3068.00000,498.44269
3070.00000,412.67572
3072.00000,325.02365
3074.00000,243.47652
3076.00000,145.85530
3078.00000,292.63364
3080.00000,233.49065
3082.00000,110.66874
3084.00000,197.68440
3086.00000,182.54802
3088.00000,83.28824
3090.00000,48.23211
3092.00000,52.00072
3094.00000,-0.87862
3096.00000,69.47520
3098.00000,77.22639
3100.00000,33.04700
3102.00000,55.94835
3104.00000,30.65470
3106.00000,34.11203
3108.00000,110.09309
3110.00000,186.28799
3112.00000,174.62682
3114.00000,158.46219
3116.00000,204.46306
3118.00000,198.15439
3120.00000,90.06217
3122.00000,148.30527
3124.00000,246.34143
3126.00000,290.52841
3128.00000,246.40866
3130.00000,107.05494
3132.00000,112.31562
3134.00000,175.93044
3136.00000,154.45607
3138.00000,131.72540
3140.00000,295.90692
3142.00000,256.61304
3144.00000,112.31224
3146.00000,164.19641
3148.00000,226.04811
3150.00000,172.70120
3152.00000,59.45481
3154.00000,61.58983
3156.00000,200.19400
3158.00000,102.77908
3160.00000,-18.39546
3162.00000,168.68233
3164.00000,440.53265
3166.00000,151.70204
3168.00000,120.68441
3170.00000,228.09744
3172.00000,144.56705
3174.00000,222.77275
3176.00000,376.24341
3178.00000,282.48169
3180.00000,163.29102
3182.00000,313.32684
3184.00000,201.22026
3186.00000,311.42068
3188.00000,465.90991
3190.00000,247.08411
3192.00000,33.47383
3194.00000,336.14273
3196.00000,294.55539
3198.00000,15.88746
3200.00000,381.65939
