300.00000,34.64241
302.00000,40.13395
304.00000,61.85525
306.00000,71.70998
308.00000,71.24497
310.00000,78.17244
312.00000,96.87826
314.00000,116.46219
316.00000,131.51239
318.00000,135.13838
320.00000,121.39671
322.00000,97.82472
324.00000,88.87186
326.00000,92.14115
328.00000,87.75123
330.00000,68.75372
332.00000,56.70135
334.00000,52.55159
336.00000,49.00826
338.00000,38.87326
340.00000,20.63767
342.00000,18.79197
344.00000,32.16690
346.00000,55.74988
348.00000,92.54058
350.00000,127.81801
352.00000,166.00766
354.00000,214.18277
356.00000,265.58167
358.00000,297.92780
360.00000,292.05612
362.00000,259.51868
364.00000,214.73381
366.00000,164.23965
368.00000,127.71033
370.00000,99.86277
372.00000,76.88688
374.00000,64.90317
376.00000,67.77415
378.00000,74.21370
380.00000,64.19804
382.00000,41.99752
384.00000,33.93373
386.00000,42.64200
388.00000,45.18560
390.00000,39.22667
392.00000,48.39537
394.00000,89.04803
396.00000,129.71472
398.00000,148.96391
400.00000,162.91393
402.00000,191.91513
404.00000,205.50021
406.00000,203.32007
408.00000,205.56052
410.00000,226.53377
412.00000,263.10263
414.00000,312.31561
416.00000,365.81079
418.00000,421.34167
420.00000,486.63409
422.00000,568.20349
424.00000,661.95801
426.00000,766.00610
428.00000,889.08380
430.00000,1038.01062
432.00000,1185.55457
434.00000,1338.57080
436.00000,1505.10559
438.00000,1665.08960
440.00000,1792.89807
442.00000,1920.42407
444.00000,2038.43787
446.00000,2115.51709
448.00000,2148.77490
450.00000,2134.68994
452.00000,2100.15356
454.00000,2046.48584
456.00000,1962.18982
458.00000,1881.07837
460.00000,1773.08264
462.00000,1635.66846
464.00000,1501.22253
466.00000,1385.81519
468.00000,1257.35437
470.00000,1117.75525
472.00000,980.44000
474.00000,858.90668
476.00000,773.67035
478.00000,695.35852
480.00000,626.16357
482.00000,565.90350
484.00000,492.39044
486.00000,451.23679
488.00000,415.01804
490.00000,364.09604
492.00000,323.60229
494.00000,304.21533
496.00000,263.45343
498.00000,223.91248
500.00000,204.29491
502.00000,170.07701
504.00000,150.47226
506.00000,125.11684
508.00000,91.87160
510.00000,75.82795
512.00000,68.43929
514.00000,52.48160
516.00000,42.27628
518.00000,44.53865
520.00000,38.91441
522.00000,34.32196
524.00000,24.99378
526.00000,20.15161
528.00000,31.45101
530.00000,36.19653
532.00000,24.96379
534.00000,17.00072
536.00000,18.12015
538.00000,9.59155
540.00000,4.60627
542.00000,4.25989
544.00000,5.94668
546.00000,7.75743
548.00000,5.11739
550.00000,3.92758
552.00000,5.37789
554.00000,5.29832
556.00000,3.42391
558.00000,10.46839
560.00000,24.46881
562.00000,26.98426
564.00000,15.86402
566.00000,25.01494
568.00000,48.71838
570.00000,82.57838
572.00000,125.01327
574.00000,167.64478
576.00000,205.13721
578.00000,261.40518
580.00000,333.07727
582.00000,396.35294
584.00000,454.71182
586.00000,529.75098
588.00000,614.71063
590.00000,696.18860
592.00000,780.87164
594.00000,884.19775
596.00000,992.07867
598.00000,1127.82214
600.00000,1305.10144
602.00000,1461.74609
604.00000,1580.26050
606.00000,1672.86499
608.00000,1747.89490
610.00000,1800.40186
612.00000,1831.63171
614.00000,1847.72339
616.00000,1876.03650
618.00000,1919.55859
620.00000,1923.03406
622.00000,1868.22937
624.00000,1760.92529
626.00000,1616.78809
628.00000,1470.08557
630.00000,1377.17517
632.00000,1302.59167
634.00000,1220.53552
636.00000,1155.20667
638.00000,1139.04956
640.00000,1146.61523
642.00000,1143.53821
644.00000,1115.85254
646.00000,1070.08325
648.00000,1012.64905
650.00000,941.14478
652.00000,869.53912
654.00000,805.07312
656.00000,731.19409
658.00000,666.59131
660.00000,608.55823
662.00000,554.02393
664.00000,509.87854
666.00000,467.72018
668.00000,423.53497
670.00000,398.92761
672.00000,383.88272
674.00000,326.53918
676.00000,284.17044
678.00000,247.88013
680.00000,202.15556
682.00000,164.10628
684.00000,124.63978
686.00000,61.54843
688.00000,10.57627
690.00000,9.45928
692.00000,26.74608
694.00000,23.77510
696.00000,23.10882
698.00000,33.48630
700.00000,35.83746
702.00000,49.17108
704.00000,79.23516
706.00000,95.38235
708.00000,89.89990
710.00000,101.86580
712.00000,111.49783
714.00000,116.49662
716.00000,121.90941
718.00000,120.15025
720.00000,103.91437
722.00000,112.80554
724.00000,118.89488
726.00000,99.42444
728.00000,105.53793
730.00000,132.05251
732.00000,139.53371
734.00000,134.25674
736.00000,152.49754
738.00000,177.88361
740.00000,192.55051
742.00000,180.93900
744.00000,163.53380
746.00000,176.13272
748.00000,161.79056
750.00000,157.28804
752.00000,170.96455
754.00000,152.40726
756.00000,105.93230
758.00000,104.42055
760.00000,120.05473
762.00000,109.51432
764.00000,102.61964
766.00000,88.89851
768.00000,69.92499
770.00000,59.37914
772.00000,73.48949
774.00000,118.96364
776.00000,162.84880
778.00000,204.42987
780.00000,246.81203
782.00000,268.74161
784.00000,273.06314
786.00000,265.03122
788.00000,254.41393
790.00000,244.93834
792.00000,230.58818
794.00000,253.37224
796.00000,325.87238
798.00000,415.38437
800.00000,481.21313
802.00000,520.95673
804.00000,505.43658
806.00000,447.87918
808.00000,403.08875
810.00000,389.66174
812.00000,355.65753
814.00000,329.72720
816.00000,337.27643
818.00000,340.10065
820.00000,353.34760
822.00000,412.73804
824.00000,469.68820
826.00000,475.68149
828.00000,499.10254
830.00000,510.09860
832.00000,496.79004
834.00000,479.65631
836.00000,471.99872
838.00000,461.40573
840.00000,465.02853
842.00000,476.99051
844.00000,470.10904
846.00000,441.22232
848.00000,408.29886
850.00000,358.65250
852.00000,313.20563
854.00000,312.67477
856.00000,290.34827
858.00000,250.81734
860.00000,214.58073
862.00000,182.44553
864.00000,152.68156
866.00000,136.70578
868.00000,132.87294
870.00000,135.01634
872.00000,134.61635
874.00000,111.66764
876.00000,96.58573
878.00000,86.53240
880.00000,69.89858
882.00000,75.90316
884.00000,70.99388
886.00000,47.69961
888.00000,23.30089
890.00000,17.44164
892.00000,41.84544
894.00000,49.57526
896.00000,44.96927
898.00000,62.58053
900.00000,90.09647
902.00000,110.11001
904.00000,114.33469
906.00000,112.58862
908.00000,121.77884
910.00000,139.70396
912.00000,158.26195
914.00000,157.06551
916.00000,141.80457
918.00000,149.66217
920.00000,137.46619
922.00000,110.50208
924.00000,98.98779
926.00000,97.62294
928.00000,65.18753
930.00000,54.77699
932.00000,55.75888
934.00000,32.01599
936.00000,15.18789
938.00000,5.24640
940.00000,0.60809
942.00000,-0.03522
944.00000,-0.03449
946.00000,0.40746
948.00000,-0.24257
950.00000,2.64941
952.00000,7.38124
954.00000,2.41144
956.00000,-0.21241
958.00000,0.55814
960.00000,0.66196
962.00000,0.04594
964.00000,-0.04273
966.00000,0.02492
968.00000,-0.00458
970.00000,0.00037
972.00000,0.00034
974.00000,0.00055
976.00000,-0.00238
978.00000,0.00372
980.00000,0.00387
982.00000,-0.04298
984.00000,0.15781
986.00000,-0.34176
988.00000,0.67116
990.00000,14.11982
992.00000,62.92718
994.00000,192.61894
996.00000,392.98254
998.00000,600.60498
1000.00000,761.62769
1002.00000,758.21710
1004.00000,598.19696
1006.00000,346.39737
1008.00000,72.76134
1010.00000,5.07915
1012.00000,30.04059
1014.00000,21.54889
1016.00000,1.40718
1018.00000,-9.29631
1020.00000,74.96945
1022.00000,212.61349
1024.00000,299.03955
1026.00000,308.46326
1028.00000,296.61172
1030.00000,262.54562
1032.00000,203.58078
1034.00000,143.11987
1036.00000,96.02965
1038.00000,66.07909
1040.00000,65.52345
1042.00000,87.29868
1044.00000,97.37551
1046.00000,87.71897
1048.00000,50.71476
1050.00000,42.17669
1052.00000,104.05212
1054.00000,158.07738
1056.00000,226.59547
1058.00000,293.44302
1060.00000,350.43497
1062.00000,431.37454
1064.00000,498.13956
1066.00000,566.00244
1068.00000,605.54486
1070.00000,601.52191
1072.00000,639.31293
1074.00000,604.11713
1076.00000,563.01514
1078.00000,597.98993
1080.00000,650.88818
1082.00000,752.27905
1084.00000,917.71814
1086.00000,1038.26013
1088.00000,998.97742
1090.00000,855.89349
1092.00000,674.68744
1094.00000,511.30099
1096.00000,392.69800
1098.00000,306.56674
1100.00000,224.63379
1102.00000,159.79999
1104.00000,105.81873
1106.00000,48.88850
1108.00000,13.51659
1110.00000,2.67258
1112.00000,1.16336
1114.00000,0.35877
1116.00000,0.84144
1118.00000,-5.80792
1120.00000,24.64183
1122.00000,77.14281
1124.00000,88.21031
1126.00000,49.17564
1128.00000,26.15277
1130.00000,20.66391
1132.00000,-0.02280
1134.00000,-7.67995
1136.00000,104.38247
1138.00000,227.21413
1140.00000,249.60291
1142.00000,199.45177
1144.00000,184.82156
1146.00000,182.88739
1148.00000,246.53070
1150.00000,351.64709
1152.00000,417.92358
1154.00000,579.81580
1156.00000,720.03125
1158.00000,796.66083
1160.00000,818.27777
1162.00000,712.28308
1164.00000,667.67682
1166.00000,658.60162
1168.00000,631.19763
1170.00000,628.06787
1172.00000,594.96423
1174.00000,549.67010
1176.00000,516.20959
1178.00000,504.16043
1180.00000,519.16229
1182.00000,522.04138
1184.00000,492.76147
1186.00000,423.94043
1188.00000,335.69730
1190.00000,298.49091
1192.00000,269.14294
1194.00000,287.17416
1196.00000,373.89288
1198.00000,422.77393
1200.00000,493.79358
1202.00000,539.60919
1204.00000,527.32159
1206.00000,486.97003
1208.00000,387.22791
1210.00000,298.67310
1212.00000,236.36232
1214.00000,192.74384
1216.00000,204.14035
1218.00000,218.19751
1220.00000,249.50233
1222.00000,304.81766
1224.00000,353.83383
1226.00000,403.73853
1228.00000,451.20511
1230.00000,502.69592
1232.00000,554.73053
1234.00000,589.13959
1236.00000,638.66730
1238.00000,705.86005
1240.00000,798.54651
1242.00000,919.24432
1244.00000,1015.61340
1246.00000,1102.55286
1248.00000,1183.09888
1250.00000,1306.24683
1252.00000,1555.69653
1254.00000,1812.93030
1256.00000,2117.53003
1258.00000,2502.99023
1260.00000,2877.84448
1262.00000,3112.51709
1264.00000,3115.48877
1266.00000,2821.07593
1268.00000,2323.40771
1270.00000,1865.36755
1272.00000,1482.52490
1274.00000,1204.76233
1276.00000,1033.69263
1278.00000,920.98053
1280.00000,819.89551
1282.00000,735.51709
1284.00000,700.20459
1286.00000,716.41284
1288.00000,748.35193
1290.00000,802.94482
1292.00000,888.64630
1294.00000,996.53613
1296.00000,1096.64868
1298.00000,1152.99512
1300.00000,1174.53687
1302.00000,1200.41211
1304.00000,1245.60913
1306.00000,1285.46118
1308.00000,1330.05713
1310.00000,1467.32532
1312.00000,1694.70300
1314.00000,1984.92932
1316.00000,2447.33911
1318.00000,3031.01123
1320.00000,3699.45337
1322.00000,4354.16357
1324.00000,4818.65625
1326.00000,5091.09277
1328.00000,5198.02344
1330.00000,5223.87305
1332.00000,5195.49219
1334.00000,4971.27637
1336.00000,4602.64844
1338.00000,4168.97119
1340.00000,3710.13086
1342.00000,3282.60352
1344.00000,3032.00781
1346.00000,2933.20532
1348.00000,2987.86743
1350.00000,3146.61279
1352.00000,3148.96045
1354.00000,2974.30444
1356.00000,2659.74243
1358.00000,2325.70776
1360.00000,2106.89502
1362.00000,1886.83154
1364.00000,1698.27771
1366.00000,1528.84814
1368.00000,1365.51843
1370.00000,1316.97498
1372.00000,1224.90125
1374.00000,1161.54492
1376.00000,1172.53809
1378.00000,1132.64172
1380.00000,1123.37207
1382.00000,1122.38330
1384.00000,1108.12769
1386.00000,1108.06824
1388.00000,1135.28711
1390.00000,1147.65295
1392.00000,1162.59314
1394.00000,1237.05396
1396.00000,1376.59058
1398.00000,1489.28259
1400.00000,1621.87512
1402.00000,1711.22009
1404.00000,1661.01770
1406.00000,1541.77979
1408.00000,1366.02112
1410.00000,1197.50232
1412.00000,1045.19849
1414.00000,869.09857
1416.00000,764.63782
1418.00000,721.63849
1420.00000,682.46307
1422.00000,614.29291
1424.00000,527.22717
1426.00000,441.59094
1428.00000,380.45779
1430.00000,348.18127
1432.00000,341.65881
1434.00000,379.46783
1436.00000,404.17480
1438.00000,398.53659
1440.00000,371.83292
1442.00000,312.49725
1444.00000,288.24884
1446.00000,274.22595
1448.00000,252.28096
1450.00000,261.56390
1452.00000,287.07794
1454.00000,249.43764
1456.00000,207.09984
1458.00000,227.49315
1460.00000,218.62523
1462.00000,164.11761
1464.00000,132.66029
1466.00000,116.97159
1468.00000,66.63528
1470.00000,73.42858
1472.00000,61.82180
1474.00000,27.72633
1476.00000,36.14257
1478.00000,87.64524
1480.00000,149.09407
1482.00000,255.97731
1484.00000,398.13712
1486.00000,516.64594
1488.00000,629.99066
1490.00000,694.27460
1492.00000,702.40466
1494.00000,712.46576
1496.00000,788.47803
1498.00000,905.10474
1500.00000,968.86920
1502.00000,1003.41229
1504.00000,1093.25159
1506.00000,1155.83594
1508.00000,1202.48303
1510.00000,1222.72314
1512.00000,1191.42847
1514.00000,1114.93188
1516.00000,977.18250
1518.00000,844.71558
1520.00000,740.61334
1522.00000,629.70630
1524.00000,532.46606
1526.00000,446.76172
1528.00000,414.69287
1530.00000,417.53061
1532.00000,356.53641
1534.00000,315.12195
1536.00000,305.19452
1538.00000,291.86960
1540.00000,283.16440
1542.00000,335.15967
1544.00000,367.26971
1546.00000,348.02060
1548.00000,325.99448
1550.00000,337.12021
1552.00000,313.86865
1554.00000,233.26817
1556.00000,163.24600
1558.00000,152.35414
1560.00000,112.26336
1562.00000,53.18423
1564.00000,47.76048
1566.00000,108.81433
1568.00000,181.11739
1570.00000,304.95996
1572.00000,397.72406
1574.00000,536.76807
1576.00000,799.44214
1578.00000,952.43054
1580.00000,1198.71338
1582.00000,1551.74573
1584.00000,1952.43896
1586.00000,2479.59033
1588.00000,3057.74268
1590.00000,3518.51587
1592.00000,3827.34473
1594.00000,4026.41919
1596.00000,4060.42529
1598.00000,4029.88721
1600.00000,3940.22290
1602.00000,3731.95386
1604.00000,3436.99023
1606.00000,3206.43018
1608.00000,2906.41577
1610.00000,2603.75195
1612.00000,2464.77759
1614.00000,2323.13257
1616.00000,2160.61084
1618.00000,2054.66528
1620.00000,1990.82532
1622.00000,1883.50916
1624.00000,1836.98645
1626.00000,1782.46509
1628.00000,1706.91382
1630.00000,1684.59155
1632.00000,1699.41174
1634.00000,1653.56348
1636.00000,1618.07959
1638.00000,1597.27063
1640.00000,1491.00269
1642.00000,1474.14441
1644.00000,1490.21729
1646.00000,1444.99170
1648.00000,1382.92407
1650.00000,1409.13367
1652.00000,1368.78333
1654.00000,1342.26123
1656.00000,1378.37512
1658.00000,1352.73743
1660.00000,1347.98865
1662.00000,1438.22461
1664.00000,1527.55737
1666.00000,1526.96472
1668.00000,1520.03638
1670.00000,1399.88806
1672.00000,1368.45349
1674.00000,1390.01099
1676.00000,1219.03589
1678.00000,1268.44348
1680.00000,1225.15662
1682.00000,1109.88818
1684.00000,1148.90015
1686.00000,1108.05334
1688.00000,1063.10229
1690.00000,1024.40112
1692.00000,1002.29309
1694.00000,1012.71655
1696.00000,915.13141
1698.00000,941.39825
1700.00000,1014.10925
1702.00000,937.96912
1704.00000,880.23444
1706.00000,864.37317
1708.00000,854.86859
1710.00000,845.68402
1712.00000,848.79218
1714.00000,834.98108
1716.00000,866.26514
1718.00000,891.34418
1720.00000,870.79889
1722.00000,896.26416
1724.00000,840.27692
1726.00000,862.57056
1728.00000,921.94562
1730.00000,828.72717
1732.00000,905.85522
1734.00000,908.10901
1736.00000,867.12250
1738.00000,893.34589
1740.00000,785.50232
1742.00000,829.42926
1744.00000,859.31665
1746.00000,798.78979
1748.00000,831.40930
1750.00000,831.37524
1752.00000,806.65906
1754.00000,810.61743
1756.00000,813.36804
1758.00000,762.50916
1760.00000,844.70013
1762.00000,864.25928
1764.00000,800.51709
1766.00000,836.00092
1768.00000,772.92133
1770.00000,775.18097
1772.00000,814.44604
1774.00000,788.20551
1776.00000,792.54175
1778.00000,790.26849
1780.00000,802.45392
1782.00000,805.44604
1784.00000,777.29779
1786.00000,830.05432
1788.00000,789.61395
1790.00000,766.70349
1792.00000,831.49078
1794.00000,763.95221
1796.00000,793.16742
1798.00000,804.71661
1800.00000,786.76080
1802.00000,861.92639
1804.00000,842.03479
1806.00000,803.46039
1808.00000,770.99249
1810.00000,749.44696
1812.00000,797.82727
1814.00000,807.02197
1816.00000,785.74823
1818.00000,769.41150
1820.00000,778.97156
1822.00000,843.69794
1824.00000,793.19666
1826.00000,775.55151
1828.00000,841.53247
1830.00000,762.30054
1832.00000,840.63129
1834.00000,860.83990
1836.00000,793.55823
1838.00000,824.78571
1840.00000,777.23761
1842.00000,845.52240
1844.00000,889.49445
1846.00000,803.95270
1848.00000,818.68121
1850.00000,844.24316
1852.00000,848.74823
1854.00000,881.42853
1856.00000,918.61560
1858.00000,836.02222
1860.00000,863.44781
1862.00000,899.82623
1864.00000,841.58691
1866.00000,851.81049
1868.00000,843.34595
1870.00000,811.74542
1872.00000,797.14539
1874.00000,798.98364
1876.00000,780.41138
1878.00000,782.56848
1880.00000,788.58728
1882.00000,793.83301
1884.00000,826.57861
1886.00000,808.90759
1888.00000,803.51923
1890.00000,810.30566
1892.00000,786.06622
1894.00000,792.12299
1896.00000,790.91132
1898.00000,796.26178
1900.00000,809.62299
1902.00000,799.67957
1904.00000,832.81122
1906.00000,852.94092
1908.00000,847.46497
1910.00000,845.30646
1912.00000,826.79614
1914.00000,874.96661
1916.00000,868.59131
1918.00000,813.62305
1920.00000,873.73370
1922.00000,842.57001
1924.00000,844.99011
1926.00000,850.34320
1928.00000,791.24213
1930.00000,864.76288
1932.00000,821.13733
1934.00000,811.70282
1936.00000,864.43665
1938.00000,758.17609
1940.00000,830.17993
1942.00000,923.99872
1944.00000,892.17041
1946.00000,830.29468
1948.00000,869.17389
1950.00000,940.42841
1952.00000,917.33337
1954.00000,836.80743
1956.00000,852.35217
1958.00000,908.43640
1960.00000,870.96313
1962.00000,838.99011
1964.00000,881.37775
1966.00000,822.25171
1968.00000,914.85406
1970.00000,840.88928
1972.00000,679.89545
1974.00000,865.23730
1976.00000,770.90326
1978.00000,738.43213
1980.00000,741.94696
1982.00000,600.12573
1984.00000,651.75116
1986.00000,555.49017
1988.00000,516.45410
1990.00000,586.87787
1992.00000,475.10089
1994.00000,428.09326
1996.00000,480.90567
1998.00000,441.94186
2000.00000,0.00003
2002.00000,-0.00001
2004.00000,-0.00001
2006.00000,0.00001
2008.00000,0.00004
2010.00000,-0.00021
2012.00000,0.00059
2014.00000,-0.00085
2016.00000,-0.00097
2018.00000,0.03179
2020.00000,0.11389
2022.00000,-0.00918
2024.00000,0.22366
2026.00000,1.05774
2028.00000,-1.72779
2030.00000,6.83334
2032.00000,-5.10259
2034.00000,13.29449
2036.00000,356.53268
2038.00000,576.18658
2040.00000,627.21997
2042.00000,778.41840
2044.00000,827.02301
2046.00000,724.15210
2048.00000,631.20184
2050.00000,533.43555
2052.00000,261.80240
2054.00000,166.64574
2056.00000,250.04674
2058.00000,422.57773
2060.00000,605.14136
2062.00000,594.77106
2064.00000,491.47198
2066.00000,425.19485
2068.00000,397.77826
2070.00000,374.19138
2072.00000,542.64398
2074.00000,759.46558
2076.00000,873.60925
2078.00000,931.85248
2080.00000,967.41229
2082.00000,973.30603
2084.00000,1001.81854
2086.00000,1089.31091
2088.00000,1153.41980
2090.00000,1140.81506
2092.00000,1137.39673
2094.00000,1112.63550
2096.00000,917.06580
2098.00000,688.93378
2100.00000,467.83032
2102.00000,276.03073
2104.00000,158.34850
2106.00000,111.81181
2108.00000,75.50973
2110.00000,69.35116
2112.00000,106.52076
2114.00000,118.42133
2116.00000,89.25032
2118.00000,71.85600
2120.00000,108.31332
2122.00000,154.61383
2124.00000,100.61992
2126.00000,28.49430
2128.00000,0.70834
2130.00000,0.00682
2132.00000,-1.47932
2134.00000,7.58785
2136.00000,-19.97898
2138.00000,29.13384
2140.00000,252.25549
2142.00000,248.18817
2144.00000,201.66263
2146.00000,172.12976
2148.00000,60.42724
2150.00000,42.40014
2152.00000,226.72023
2154.00000,548.87189
2156.00000,823.56055
2158.00000,871.26166
2160.00000,672.09650
2162.00000,417.67984
2164.00000,303.86090
2166.00000,350.10324
2168.00000,401.34152
2170.00000,478.43384
2172.00000,657.10260
2174.00000,844.41766
2176.00000,842.91504
2178.00000,868.04230
2180.00000,866.69244
2182.00000,802.85449
2184.00000,807.29700
2186.00000,868.44696
2188.00000,792.96503
2190.00000,670.23798
2192.00000,664.81671
2194.00000,662.99170
2196.00000,703.00378
2198.00000,768.78546
2200.00000,772.35767
2202.00000,684.45886
2204.00000,626.76202
2206.00000,400.65701
2208.00000,149.81630
2210.00000,177.74249
2212.00000,279.35052
2214.00000,302.87656
2216.00000,479.32089
2218.00000,794.54449
2220.00000,824.99579
2222.00000,838.21112
2224.00000,796.76135
2226.00000,561.05548
2228.00000,246.97949
2230.00000,176.19392
2232.00000,133.29887
2234.00000,77.24065
2236.00000,117.98486
2238.00000,198.69411
2240.00000,319.15570
2242.00000,540.22168
2244.00000,752.30109
2246.00000,783.12256
2248.00000,811.89709
2250.00000,793.07922
2252.00000,749.08313
2254.00000,744.71759
2256.00000,683.27216
2258.00000,569.92627
2260.00000,506.81662
2262.00000,522.12939
2264.00000,521.22247
2266.00000,492.51077
2268.00000,536.36102
2270.00000,654.09045
2272.00000,721.94885
2274.00000,672.65631
2276.00000,625.55231
2278.00000,637.50519
2280.00000,682.78802
2282.00000,736.48834
2284.00000,773.77643
2286.00000,712.70563
2288.00000,632.77246
2290.00000,702.04529
2292.00000,816.00598
2294.00000,828.61066
2296.00000,809.46753
2298.00000,814.50732
2300.00000,678.66504
2302.00000,533.48572
2304.00000,421.18298
2306.00000,355.07034
2308.00000,376.55695
2310.00000,397.71555
2312.00000,395.47430
2314.00000,406.04013
2316.00000,477.26108
2318.00000,622.48438
2320.00000,777.59454
2322.00000,849.50415
2324.00000,841.95020
2326.00000,855.92206
2328.00000,867.22577
2330.00000,866.19489
2332.00000,880.81671
2334.00000,923.78247
2336.00000,937.82507
2338.00000,888.30688
2340.00000,864.56787
2342.00000,871.13416
2344.00000,758.67157
2346.00000,726.14850
2348.00000,772.21027
2350.00000,817.78210
2352.00000,871.95392
2354.00000,945.25946
2356.00000,987.30524
2358.00000,986.18280
2360.00000,970.45129
2362.00000,940.82367
2364.00000,867.96106
2366.00000,797.27472
2368.00000,806.17133
2370.00000,904.70294
2372.00000,981.35657
2374.00000,961.09314
2376.00000,925.98767
2378.00000,957.46289
2380.00000,934.08093
2382.00000,940.68939
2384.00000,948.78467
2386.00000,902.76080
2388.00000,878.18433
2390.00000,898.94861
2392.00000,927.33154
2394.00000,971.71033
2396.00000,1066.08167
2398.00000,1147.07397
2400.00000,1228.16968
2402.00000,1311.15234
2404.00000,1368.97937
2406.00000,1382.55505
2408.00000,1341.97229
2410.00000,1356.10645
2412.00000,1390.46021
2414.00000,1309.56360
2416.00000,1330.94458
2418.00000,1408.64917
2420.00000,1417.79980
2422.00000,1344.90100
2424.00000,1291.21838
2426.00000,1315.73621
2428.00000,1299.63855
2430.00000,1233.30322
2432.00000,1274.08093
2434.00000,1241.04712
2436.00000,1193.58862
2438.00000,1206.85681
2440.00000,1210.57446
2442.00000,1125.01160
2444.00000,1016.82227
2446.00000,1002.06628
2448.00000,1021.94257
2450.00000,886.35358
2452.00000,856.69116
2454.00000,915.88251
2456.00000,849.02502
2458.00000,662.15961
2460.00000,762.15051
2462.00000,858.68359
2464.00000,809.71893
2466.00000,775.44293
2468.00000,793.25574
2470.00000,813.38763
2472.00000,810.74493
2474.00000,843.96021
2476.00000,960.88251
2478.00000,999.02185
2480.00000,959.09503
2482.00000,945.09735
2484.00000,1003.31317
2486.00000,1037.10376
2488.00000,972.75824
2490.00000,941.93469
2492.00000,1039.48730
2494.00000,1126.32263
2496.00000,1121.41296
2498.00000,1157.43103
2500.00000,1267.12842
2502.00000,1302.75439
2504.00000,1233.04041
2506.00000,1283.19055
2508.00000,1319.76257
2510.00000,1194.09216
2512.00000,1195.99573
2514.00000,1249.63232
2516.00000,1252.03931
2518.00000,1194.87781
2520.00000,1167.36218
2522.00000,1285.19861
2524.00000,1295.44226
2526.00000,1187.97314
2528.00000,1189.92676
2530.00000,1293.46155
2532.00000,1351.32837
2534.00000,1356.27759
2536.00000,1371.03625
2538.00000,1378.63318
2540.00000,1320.03625
2542.00000,1375.68506
2544.00000,1441.15613
2546.00000,1344.41650
2548.00000,1471.81665
2550.00000,1541.20142
2552.00000,1388.88818
2554.00000,1266.53345
2556.00000,1428.75220
2558.00000,1406.09143
2560.00000,1350.19250
2562.00000,1404.55237
2564.00000,1388.58936
2566.00000,1439.80994
2568.00000,1455.87646
2570.00000,1483.42676
2572.00000,1569.91101
2574.00000,1498.57886
2576.00000,1457.54651
2578.00000,1513.51318
2580.00000,1562.48181
2582.00000,1506.08069
2584.00000,1408.27502
2586.00000,1582.95874
2588.00000,1657.59448
2590.00000,1349.16394
2592.00000,1620.30627
2594.00000,1765.80591
2596.00000,1508.97705
2598.00000,1404.56274
2600.00000,1775.28625
2602.00000,1632.18774
2604.00000,1428.31067
2606.00000,1633.42737
2608.00000,1803.51758
2610.00000,1581.24805
2612.00000,1565.92615
2614.00000,1761.77344
2616.00000,1742.74963
2618.00000,1604.00928
2620.00000,1632.10364
2622.00000,1709.86206
2624.00000,1658.55835
2626.00000,1582.94470
2628.00000,1673.90247
2630.00000,1638.74731
2632.00000,1558.92432
2634.00000,1682.88196
2636.00000,1712.86853
2638.00000,1659.60193
2640.00000,1681.03540
2642.00000,1766.23340
2644.00000,1742.03735
2646.00000,1728.07166
2648.00000,1772.49072
2650.00000,1772.17896
2652.00000,1684.13611
2654.00000,1717.08337
2656.00000,1762.74329
2658.00000,1727.00391
2660.00000,1671.58704
2662.00000,1706.33887
2664.00000,1761.17114
2666.00000,1659.71460
2668.00000,1623.52686
2670.00000,1845.17932
2672.00000,1567.35522
2674.00000,1585.47046
2676.00000,1845.81543
2678.00000,1656.54858
2680.00000,1399.92078
2682.00000,1650.31763
2684.00000,1803.79382
2686.00000,1522.65442
2688.00000,1507.61584
2690.00000,1793.56140
2692.00000,1678.06482
2694.00000,1459.65662
2696.00000,1729.85645
2698.00000,1631.49548
2700.00000,1527.65796
2702.00000,1662.39087
2704.00000,1741.71643
2706.00000,1529.06116
2708.00000,1633.17004
2710.00000,1745.41736
2712.00000,1641.44495
2714.00000,1595.15845
2716.00000,1561.12854
2718.00000,1577.61926
2720.00000,1613.97815
2722.00000,1592.09534
2724.00000,1541.85437
2726.00000,1615.73560
2728.00000,1671.31653
2730.00000,1612.76135
2732.00000,1561.13000
2734.00000,1528.66638
2736.00000,1639.41736
2738.00000,1674.93335
2740.00000,1533.63940
2742.00000,1705.09167
2744.00000,1658.36157
2746.00000,1522.56201
2748.00000,1615.87793
2750.00000,1664.86584
2752.00000,1428.58264
2754.00000,1453.93262
2756.00000,1632.25574
2758.00000,1445.36609
2760.00000,1465.63770
2762.00000,1625.90515
2764.00000,1525.31860
2766.00000,1284.62756
2768.00000,1498.25830
2770.00000,1473.27759
2772.00000,1270.38843
2774.00000,1268.13123
2776.00000,1401.77319
2778.00000,1281.72351
2780.00000,1214.72266
2782.00000,1258.67908
2784.00000,1200.51733
2786.00000,1109.03259
2788.00000,1085.65344
2790.00000,1032.73157
2792.00000,931.22681
2794.00000,886.45331
2796.00000,725.44641
2798.00000,660.27484
2800.00000,726.38037
2802.00000,673.30676
2804.00000,483.59116
2806.00000,681.35040
2808.00000,655.53302
2810.00000,219.36972
2812.00000,403.52905
2814.00000,387.75681
2816.00000,130.68706
2818.00000,59.11649
2820.00000,205.26799
2822.00000,106.25227
2824.00000,0.28701
2826.00000,1.37601
2828.00000,-0.00985
2830.00000,2.08553
2832.00000,1.39260
2834.00000,-0.36307
2836.00000,0.06213
2838.00000,0.02244
2840.00000,-0.02185
2842.00000,0.01946
2844.00000,0.05546
2846.00000,0.03084
2848.00000,-0.09570
2850.00000,0.40493
2852.00000,-0.65459
2854.00000,8.91348
2856.00000,31.57022
2858.00000,2.46627
2860.00000,30.26660
2862.00000,70.48191
2864.00000,18.48293
2866.00000,55.91462
2868.00000,31.20126
2870.00000,32.10006
2872.00000,163.01169
2874.00000,198.49835
2876.00000,64.99539
2878.00000,67.46206
2880.00000,204.85175
2882.00000,127.23537
2884.00000,-20.89009
2886.00000,194.71622
2888.00000,311.36060
2890.00000,44.86002
2892.00000,351.43155
2894.00000,597.32196
2896.00000,491.72433
2898.00000,562.88324
2900.00000,1098.04260
2902.00000,871.50342
2904.00000,957.83691
2906.00000,1373.45190
2908.00000,1242.90063
2910.00000,1490.66553
2912.00000,1751.09326
2914.00000,1762.35071
2916.00000,1804.70349
2918.00000,2147.74731
2920.00000,2323.25000
2922.00000,2300.21582
2924.00000,2437.91260
2926.00000,2778.95044
2928.00000,2677.27344
2930.00000,2778.56665
2932.00000,3060.90454
2934.00000,3062.86914
2936.00000,3000.13745
2938.00000,3026.80957
2940.00000,3034.62524
2942.00000,2921.89819
2944.00000,2837.08081
2946.00000,3015.45947
2948.00000,2842.33447
2950.00000,2665.09058
2952.00000,2899.84229
2954.00000,2549.50830
2956.00000,2589.74219
2958.00000,2843.78662
2960.00000,2702.03467
2962.00000,2483.35986
2964.00000,2562.72119
2966.00000,2554.53149
2968.00000,2447.25708
2970.00000,2535.60327
2972.00000,2419.53198
2974.00000,2249.65527
2976.00000,2221.57837
2978.00000,2329.34229
2980.00000,2361.92773
2982.00000,2000.91650
2984.00000,2066.90454
2986.00000,2283.75415
2988.00000,1706.53906
2990.00000,1816.28381
2992.00000,1904.28125
2994.00000,1551.35046
2996.00000,1389.85693
2998.00000,1718.66248
3000.00000,1330.75574
3002.00000,892.07581
3004.00000,898.69281
3006.00000,568.58704
3008.00000,538.10065
3010.00000,582.76050
3012.00000,386.13391
3014.00000,171.06451
3016.00000,318.16739
3018.00000,297.36459
3020.00000,82.22733
3022.00000,0.77929
3024.00000,81.85083
3026.00000,145.65785
3028.00000,72.74382
3030.00000,58.19407
3032.00000,281.02609
3034.00000,325.63589
3036.00000,73.33260
3038.00000,93.14352
3040.00000,483.21008
3042.00000,390.81400
3044.00000,562.76117
3046.00000,905.68390
3048.00000,1128.04272
3050.00000,1407.48657
3052.00000,1698.09570
3054.00000,2012.42285
3056.00000,2272.45947
3058.00000,2433.57739
3060.00000,2624.52661
3062.00000,2650.55151
3064.00000,2741.03223
3066.00000,2892.89404
3068.00000,2750.55322
3070.00000,2880.35107
3072.00000,2638.08081
3074.00000,2398.54663
3076.00000,2817.48535
3078.00000,2418.98584
3080.00000,2326.90991
3082.00000,2355.59106
3084.00000,1990.29883
3086.00000,2113.96851
3088.00000,2161.87964
3090.00000,2184.63721
3092.00000,2009.78552
3094.00000,1568.97412
3096.00000,2266.46265
3098.00000,2216.82300
3100.00000,1626.88574
3102.00000,1865.78259
3104.00000,1951.41614
3106.00000,1897.47961
3108.00000,1824.83728
3110.00000,1824.90027
3112.00000,1862.79492
3114.00000,1483.39258
3116.00000,1634.85437
3118.00000,1935.04688
3120.00000,1483.13623
3122.00000,1485.91064
3124.00000,1794.22156
3126.00000,1601.28882
3128.00000,1158.56018
3130.00000,1532.88269
3132.00000,1392.45056
3134.00000,874.41638
3136.00000,863.79974
3138.00000,1299.05017
3140.00000,918.85889
3142.00000,672.93048
3144.00000,743.17261
3146.00000,700.33490
3148.00000,819.91211
3150.00000,717.88617
3152.00000,471.50357
3154.00000,345.00464
3156.00000,463.72900
3158.00000,904.93640
3160.00000,840.07153
3162.00000,421.90616
3164.00000,478.63519
3166.00000,836.52075
3168.00000,681.15839
3170.00000,393.08319
3172.00000,651.41022
3174.00000,997.36298
3176.00000,199.17816
3178.00000,405.27032
3180.00000,1003.24585
3182.00000,39.62447
3184.00000,359.74133
3186.00000,286.44360
3188.00000,57.05555
3190.00000,478.25302
3192.00000,242.21304
3194.00000,302.61609
3196.00000,220.35834
3198.00000,42.13010
3200.00000,427.90741
