300.00000,35.00438
302.00000,20.26850
304.00000,9.72951
306.00000,21.09072
308.00000,58.20937
310.00000,93.63742
312.00000,98.27280
314.00000,108.38756
316.00000,119.35133
318.00000,129.39651
320.00000,136.40157
322.00000,117.44233
324.00000,101.99577
326.00000,82.83365
328.00000,57.03725
330.00000,48.68538
332.00000,50.01624
334.00000,61.09082
336.00000,66.95277
338.00000,55.46465
340.00000,46.11395
342.00000,51.26229
344.00000,66.05652
346.00000,85.12225
348.00000,111.47355
350.00000,145.44205
352.00000,181.14824
354.00000,224.68556
356.00000,264.27585
358.00000,259.02460
360.00000,237.88094
362.00000,215.46579
364.00000,181.41176
366.00000,134.74370
368.00000,108.61695
370.00000,87.37276
372.00000,63.49145
374.00000,47.00086
376.00000,42.70669
378.00000,57.27765
380.00000,60.11293
382.00000,44.39922
384.00000,41.78469
386.00000,55.79750
388.00000,69.35233
390.00000,68.36565
392.00000,66.82575
394.00000,98.14070
396.00000,145.33794
398.00000,188.35878
400.00000,222.05782
402.00000,247.54451
404.00000,258.47534
406.00000,267.90250
408.00000,286.33661
410.00000,297.04044
412.00000,281.65057
414.00000,312.41962
416.00000,390.46646
418.00000,445.69467
420.00000,450.47134
422.00000,509.93976
424.00000,623.47943
426.00000,731.69470
428.00000,810.88068
430.00000,898.06921
432.00000,992.88721
434.00000,1095.96228
436.00000,1207.55981
438.00000,1319.14404
440.00000,1414.32324
442.00000,1474.28955
444.00000,1506.86475
446.00000,1538.15723
448.00000,1570.40991
450.00000,1542.56909
452.00000,1460.88586
454.00000,1364.57654
456.00000,1266.89294
458.00000,1147.49939
460.00000,1027.75928
462.00000,904.58008
464.00000,774.16718
466.00000,658.92926
468.00000,547.11914
470.00000,438.69876
472.00000,353.46979
474.00000,293.13492
476.00000,217.23953
478.00000,162.38049
480.00000,137.19673
482.00000,117.88745
484.00000,91.97788
486.00000,66.26038
488.00000,50.26510
490.00000,45.28415
492.00000,44.73045
494.00000,43.15422
496.00000,43.19467
498.00000,41.86649
500.00000,42.21164
502.00000,51.45464
504.00000,48.94437
506.00000,48.08152
508.00000,47.48738
510.00000,31.09282
512.00000,19.39550
514.00000,52.24680
516.00000,80.73146
518.00000,71.69358
520.00000,72.24171
522.00000,71.96465
524.00000,60.08571
526.00000,50.67126
528.00000,52.15392
530.00000,39.02839
532.00000,32.27168
534.00000,32.23735
536.00000,28.64752
538.00000,25.71672
540.00000,27.11212
542.00000,34.14127
544.00000,41.18557
546.00000,41.56839
548.00000,38.54990
550.00000,43.89800
552.00000,73.33436
554.00000,94.51376
556.00000,62.15954
558.00000,53.67770
560.00000,77.39079
562.00000,100.52530
564.00000,112.83150
566.00000,136.48210
568.00000,141.15871
570.00000,144.93781
572.00000,175.14491
574.00000,221.14584
576.00000,265.39813
578.00000,294.79623
580.00000,327.73871
582.00000,386.63626
584.00000,453.83182
586.00000,503.74948
588.00000,555.94354
590.00000,625.19232
592.00000,696.03162
594.00000,772.46729
596.00000,855.94067
598.00000,936.68164
600.00000,1006.98047
602.00000,1075.54761
604.00000,1147.13611
606.00000,1178.61487
608.00000,1171.44470
610.00000,1183.35229
612.00000,1202.51172
614.00000,1205.07019
616.00000,1193.06897
618.00000,1166.94470
620.00000,1102.73792
622.00000,1022.75977
624.00000,914.68573
626.00000,773.90265
628.00000,631.51086
630.00000,512.20990
632.00000,437.32617
634.00000,384.47223
636.00000,322.91113
638.00000,273.17059
640.00000,280.07593
642.00000,296.43597
644.00000,282.99872
646.00000,249.04263
648.00000,173.05128
650.00000,103.43537
652.00000,69.60554
654.00000,61.86880
656.00000,65.33311
658.00000,68.05871
660.00000,60.61170
662.00000,43.92430
664.00000,30.60309
666.00000,33.56884
668.00000,49.67420
670.00000,60.32783
672.00000,58.52895
674.00000,62.96375
676.00000,76.36419
678.00000,76.52976
680.00000,61.36751
682.00000,54.07071
684.00000,55.99424
686.00000,44.39121
688.00000,28.10551
690.00000,24.49141
692.00000,29.40071
694.00000,58.54004
696.00000,63.12272
698.00000,46.82714
700.00000,57.45067
702.00000,54.37856
704.00000,57.76977
706.00000,64.03526
708.00000,63.08480
710.00000,73.53259
712.00000,76.10942
714.00000,64.98718
716.00000,48.23701
718.00000,33.50730
720.00000,21.99850
722.00000,20.43903
724.00000,20.38970
726.00000,14.46385
728.00000,20.45727
730.00000,62.71809
732.00000,68.26597
734.00000,49.10299
736.00000,70.85857
738.00000,63.86513
740.00000,64.28965
742.00000,70.00157
744.00000,55.44363
746.00000,37.85376
748.00000,37.02837
750.00000,41.64358
752.00000,40.70681
754.00000,38.17105
756.00000,40.04496
758.00000,51.13748
760.00000,42.49560
762.00000,18.99717
764.00000,29.47428
766.00000,31.78564
768.00000,26.23240
770.00000,23.46036
772.00000,25.06409
774.00000,41.53401
776.00000,63.17266
778.00000,87.87512
780.00000,104.92200
782.00000,104.78246
784.00000,132.82664
786.00000,126.22269
788.00000,87.04802
790.00000,86.21584
792.00000,114.29570
794.00000,138.47124
796.00000,176.97493
798.00000,241.53792
800.00000,289.33481
802.00000,279.79477
804.00000,206.03215
806.00000,127.92469
808.00000,94.57700
810.00000,61.97628
812.00000,49.40377
814.00000,51.00027
816.00000,50.45718
818.00000,58.47133
820.00000,89.46209
822.00000,105.08363
824.00000,107.79461
826.00000,122.66132
828.00000,124.69693
830.00000,122.56438
832.00000,94.90736
834.00000,47.27491
836.00000,35.06586
838.00000,65.98713
840.00000,82.63186
842.00000,86.06062
844.00000,105.21101
846.00000,105.94423
848.00000,97.10083
850.00000,93.26222
852.00000,76.93363
854.00000,39.15569
856.00000,55.99256
858.00000,62.02559
860.00000,45.84696
862.00000,53.15261
864.00000,59.08182
866.00000,35.13391
868.00000,33.01294
870.00000,57.33860
872.00000,47.51103
874.00000,44.97818
876.00000,42.02088
878.00000,30.93882
880.00000,26.36662
882.00000,37.03878
884.00000,41.26651
886.00000,38.33301
888.00000,37.68248
890.00000,43.41361
892.00000,54.18633
894.00000,28.33460
896.00000,26.16798
898.00000,70.97411
900.00000,44.17493
902.00000,68.23018
904.00000,95.45203
906.00000,79.60816
908.00000,88.23347
910.00000,110.52123
912.00000,94.76456
914.00000,86.80272
916.00000,115.81174
918.00000,94.43451
920.00000,82.40104
922.00000,64.74258
924.00000,48.00880
926.00000,65.84109
928.00000,36.75312
930.00000,22.46250
932.00000,38.76121
934.00000,47.67810
936.00000,52.20988
938.00000,63.52510
940.00000,50.80626
942.00000,16.86749
944.00000,16.81015
946.00000,67.19746
948.00000,79.83032
950.00000,68.37244
952.00000,81.22715
954.00000,79.12994
956.00000,65.26798
958.00000,57.55856
960.00000,59.76956
962.00000,54.25625
964.00000,27.48621
966.00000,33.21687
968.00000,52.61514
970.00000,42.89314
972.00000,26.88186
974.00000,24.14167
976.00000,34.58467
978.00000,42.98396
980.00000,50.38861
982.00000,89.05563
984.00000,109.32574
986.00000,128.01199
988.00000,173.33025
990.00000,210.60539
992.00000,259.53461
994.00000,351.57742
996.00000,514.96844
998.00000,721.20422
1000.00000,842.71503
1002.00000,821.45227
1004.00000,686.16260
1006.00000,506.20325
1008.00000,341.84885
1010.00000,227.32440
1012.00000,170.50801
1014.00000,163.89156
1016.00000,178.12004
1018.00000,167.02582
1020.00000,160.64496
1022.00000,175.64070
1024.00000,200.06410
1026.00000,223.20265
1028.00000,250.81245
1030.00000,271.69962
1032.00000,271.82626
1034.00000,242.13156
1036.00000,183.58121
1038.00000,146.39307
1040.00000,126.09038
1042.00000,100.27948
1044.00000,85.01387
1046.00000,94.76394
1048.00000,94.94998
1050.00000,79.05331
1052.00000,74.61110
1054.00000,85.10044
1056.00000,106.13264
1058.00000,122.82738
1060.00000,150.11089
1062.00000,212.03391
1064.00000,243.19261
1066.00000,286.44922
1068.00000,291.55472
1070.00000,217.55328
1072.00000,227.90926
1074.00000,229.29906
1076.00000,227.70398
1078.00000,278.92825
1080.00000,376.61136
1082.00000,549.79456
1084.00000,774.22412
1086.00000,918.28265
1088.00000,892.67267
1090.00000,796.62048
1092.00000,644.58807
1094.00000,506.86060
1096.00000,424.11816
1098.00000,352.55600
1100.00000,293.26709
1102.00000,249.71851
1104.00000,207.46396
1106.00000,165.51892
1108.00000,153.13995
1110.00000,134.23044
1112.00000,116.53043
1114.00000,124.01982
1116.00000,134.58290
1118.00000,95.39245
1120.00000,97.38108
1122.00000,118.92893
1124.00000,86.40018
1126.00000,69.09538
1128.00000,66.10101
1130.00000,53.74013
1132.00000,31.96112
1134.00000,20.88655
1136.00000,17.97039
1138.00000,15.49722
1140.00000,21.45528
1142.00000,32.96685
1144.00000,27.58361
1146.00000,55.69161
1148.00000,90.59538
1150.00000,119.98194
1152.00000,188.70544
1154.00000,283.51947
1156.00000,369.06412
1158.00000,411.20712
1160.00000,407.88287
1162.00000,383.84671
1164.00000,309.13412
1166.00000,271.11664
1168.00000,295.88779
1170.00000,292.51843
1172.00000,259.53888
1174.00000,237.16570
1176.00000,214.20889
1178.00000,177.46249
1180.00000,168.74846
1182.00000,163.60057
1184.00000,150.75081
1186.00000,132.47665
1188.00000,116.62955
1190.00000,121.03925
1192.00000,114.84096
1194.00000,103.37331
1196.00000,112.12250
1198.00000,132.06982
1200.00000,147.93919
1202.00000,134.07628
1204.00000,102.64551
1206.00000,87.07832
1208.00000,68.03600
1210.00000,47.78614
1212.00000,25.49388
1214.00000,4.61236
1216.00000,3.72263
1218.00000,17.59967
1220.00000,28.66817
1222.00000,30.32156
1224.00000,30.23388
1226.00000,31.31869
1228.00000,24.08744
1230.00000,22.46024
1232.00000,46.36508
1234.00000,87.58820
1236.00000,118.56671
1238.00000,152.79211
1240.00000,227.21759
1242.00000,354.73871
1244.00000,484.06772
1246.00000,531.30188
1248.00000,580.69836
1250.00000,700.78589
1252.00000,815.48071
1254.00000,1026.04761
1256.00000,1313.73694
1258.00000,1635.38733
1260.00000,1959.00366
1262.00000,2166.20508
1264.00000,2148.80493
1266.00000,1887.43372
1268.00000,1469.51660
1270.00000,1046.71655
1272.00000,729.23315
1274.00000,485.84802
1276.00000,309.16360
1278.00000,218.71898
1280.00000,137.20218
1282.00000,82.07171
1284.00000,90.11216
1286.00000,144.16127
1288.00000,187.58331
1290.00000,232.11407
1292.00000,290.81198
1294.00000,380.56894
1296.00000,482.55380
1298.00000,511.36429
1300.00000,488.81326
1302.00000,460.72760
1304.00000,440.26627
1306.00000,433.63031
1308.00000,514.11212
1310.00000,651.62323
1312.00000,826.16040
1314.00000,1083.73926
1316.00000,1473.59961
1318.00000,1983.10449
1320.00000,2546.47290
1322.00000,3087.82886
1324.00000,3528.88428
1326.00000,3762.76514
1328.00000,3852.56543
1330.00000,3853.05737
1332.00000,3725.61182
1334.00000,3437.78857
1336.00000,3108.35059
1338.00000,2737.52271
1340.00000,2319.12061
1342.00000,1961.73340
1344.00000,1743.74866
1346.00000,1672.43384
1348.00000,1752.07825
1350.00000,1886.13892
1352.00000,1829.22546
1354.00000,1652.10730
1356.00000,1385.02478
1358.00000,1087.03174
1360.00000,878.04309
1362.00000,684.00146
1364.00000,515.56824
1366.00000,401.82303
1368.00000,315.35797
1370.00000,210.95297
1372.00000,174.55379
1374.00000,143.31619
1376.00000,74.98329
1378.00000,50.85586
1380.00000,52.52779
1382.00000,40.53576
1384.00000,21.47423
1386.00000,31.47795
1388.00000,79.08076
1390.00000,140.13242
1392.00000,228.14610
1394.00000,320.75943
1396.00000,394.32397
1398.00000,562.76825
1400.00000,655.31812
1402.00000,706.26056
1404.00000,789.18512
1406.00000,688.76801
1408.00000,566.42639
1410.00000,432.93170
1412.00000,300.55084
1414.00000,254.24570
1416.00000,173.55617
1418.00000,134.28452
1420.00000,139.60393
1422.00000,116.28808
1424.00000,81.56269
1426.00000,61.35221
1428.00000,53.15015
1430.00000,53.06317
1432.00000,74.21731
1434.00000,126.77621
1436.00000,191.40005
1438.00000,211.49419
1440.00000,182.70197
1442.00000,188.97325
1444.00000,201.86679
1446.00000,182.57303
1448.00000,184.22945
1450.00000,239.01546
1452.00000,179.42528
1454.00000,181.91942
1456.00000,228.88606
1458.00000,186.00624
1460.00000,132.01285
1462.00000,126.86289
1464.00000,113.18835
1466.00000,88.00492
1468.00000,98.65177
1470.00000,63.27530
1472.00000,66.10629
1474.00000,73.59665
1476.00000,49.34067
1478.00000,106.61859
1480.00000,168.04446
1482.00000,196.19087
1484.00000,263.75955
1486.00000,412.84680
1488.00000,492.66522
1490.00000,523.49872
1492.00000,545.95154
1494.00000,557.69446
1496.00000,569.15912
1498.00000,654.14771
1500.00000,709.42596
1502.00000,704.04498
1504.00000,740.01263
1506.00000,810.86627
1508.00000,815.20380
1510.00000,778.32202
1512.00000,741.30450
1514.00000,645.15509
1516.00000,540.17615
1518.00000,401.15823
1520.00000,265.00916
1522.00000,201.62578
1524.00000,132.43208
1526.00000,72.37105
1528.00000,46.67268
1530.00000,41.87919
1532.00000,32.80086
1534.00000,41.83660
1536.00000,33.25542
1538.00000,26.72649
1540.00000,83.23338
1542.00000,150.62636
1544.00000,106.57237
1546.00000,119.48023
1548.00000,236.20110
1550.00000,188.26137
1552.00000,141.16080
1554.00000,142.10841
1556.00000,110.85014
1558.00000,51.12025
1560.00000,113.15796
1562.00000,93.89690
1564.00000,82.79444
1566.00000,170.22511
1568.00000,194.36160
1570.00000,297.22076
1572.00000,412.18393
1574.00000,507.88495
1576.00000,653.41388
1578.00000,821.36853
1580.00000,974.57471
1582.00000,1192.02441
1584.00000,1500.73303
1586.00000,1818.68237
1588.00000,2207.71509
1590.00000,2539.49097
1592.00000,2684.00000
1594.00000,2666.70386
1596.00000,2607.27588
1598.00000,2465.05542
1600.00000,2257.58228
1602.00000,2006.25220
1604.00000,1692.77356
1606.00000,1402.08276
1608.00000,1111.03296
1610.00000,857.94653
1612.00000,666.98865
1614.00000,432.26349
1616.00000,381.94775
1618.00000,326.14578
1620.00000,176.49820
1622.00000,189.31174
1624.00000,154.82466
1626.00000,115.01776
1628.00000,100.20578
1630.00000,68.55924
1632.00000,70.30322
1634.00000,84.69633
1636.00000,94.97972
1638.00000,86.00146
1640.00000,61.83244
1642.00000,95.95482
1644.00000,98.18575
1646.00000,59.44902
1648.00000,47.66592
1650.00000,46.89282
1652.00000,69.68725
1654.00000,62.95115
1656.00000,38.93549
1658.00000,77.12209
1660.00000,107.13062
1662.00000,163.78773
1664.00000,250.25301
1666.00000,300.62146
1668.00000,275.60031
1670.00000,232.10770
1672.00000,168.79796
1674.00000,109.06285
1676.00000,117.55646
1678.00000,140.93921
1680.00000,78.59945
1682.00000,33.33637
1684.00000,91.70718
1686.00000,79.37263
1688.00000,42.54504
1690.00000,31.96873
1692.00000,65.94746
1694.00000,114.93539
1696.00000,71.71513
1698.00000,27.91555
1700.00000,5.26889
1702.00000,1.23830
1704.00000,82.99693
1706.00000,55.70040
1708.00000,71.01991
1710.00000,125.75340
1712.00000,35.10454
1714.00000,96.20308
1716.00000,105.30459
1718.00000,94.27409
1720.00000,161.90372
1722.00000,97.96385
1724.00000,123.30476
1726.00000,144.14299
1728.00000,125.15652
1730.00000,175.63962
1732.00000,102.45758
1734.00000,103.60217
1736.00000,169.13615
1738.00000,133.86214
1740.00000,54.73169
1742.00000,86.41611
1744.00000,89.69756
1746.00000,57.67591
1748.00000,123.43623
1750.00000,87.33791
1752.00000,43.30404
1754.00000,60.50167
1756.00000,78.10373
1758.00000,37.91268
1760.00000,17.63272
1762.00000,64.56185
1764.00000,121.48087
1766.00000,111.07535
1768.00000,82.91031
1770.00000,85.21793
1772.00000,100.15147
1774.00000,99.23996
1776.00000,92.91000
1778.00000,72.81109
1780.00000,107.21555
1782.00000,115.03403
1784.00000,43.33818
1786.00000,174.06604
1788.00000,155.80511
1790.00000,112.65754
1792.00000,188.82608
1794.00000,77.17493
1796.00000,109.84471
1798.00000,116.63770
1800.00000,58.34076
1802.00000,122.45541
1804.00000,118.97887
1806.00000,113.29651
1808.00000,117.34032
1810.00000,93.75491
1812.00000,77.45985
1814.00000,89.19271
1816.00000,99.69504
1818.00000,81.18058
1820.00000,63.57750
1822.00000,104.54756
1824.00000,76.46016
1826.00000,85.25581
1828.00000,149.62311
1830.00000,71.21173
1832.00000,105.21177
1834.00000,122.48473
1836.00000,78.52868
1838.00000,129.34756
1840.00000,225.40422
1842.00000,164.26965
1844.00000,92.86050
1846.00000,147.05379
1848.00000,160.73015
1850.00000,124.60170
1852.00000,88.19924
1854.00000,117.54501
1856.00000,156.83121
1858.00000,38.98697
1860.00000,121.62654
1862.00000,153.78244
1864.00000,68.12001
1866.00000,266.14758
1868.00000,143.85799
1870.00000,36.06236
1872.00000,110.71676
1874.00000,112.89669
1876.00000,101.25965
1878.00000,143.31129
1880.00000,167.25508
1882.00000,117.31172
1884.00000,55.72254
1886.00000,30.93983
1888.00000,104.95824
1890.00000,140.03845
1892.00000,45.34003
1894.00000,61.08967
1896.00000,73.13324
1898.00000,50.73919
1900.00000,70.83365
1902.00000,139.57214
1904.00000,130.84325
1906.00000,125.75587
1908.00000,134.86525
1910.00000,109.51193
1912.00000,114.39561
1914.00000,97.57796
1916.00000,110.02998
1918.00000,143.91562
1920.00000,109.86642
1922.00000,113.90925
1924.00000,65.55270
1926.00000,31.66978
1928.00000,110.89491
1930.00000,122.73790
1932.00000,23.15991
1934.00000,40.69149
1936.00000,132.78600
1938.00000,48.15413
1940.00000,122.76533
1942.00000,138.60918
1944.00000,78.90675
1946.00000,96.59103
1948.00000,84.52557
1950.00000,187.74211
1952.00000,133.79886
1954.00000,16.12725
1956.00000,207.39192
1958.00000,125.75802
1960.00000,182.09270
1962.00000,228.35301
1964.00000,50.64035
1966.00000,250.96129
1968.00000,156.21234
1970.00000,106.33389
1972.00000,204.35519
1974.00000,13.57261
1976.00000,198.63541
1978.00000,184.17499
1980.00000,54.11844
1982.00000,183.36934
1984.00000,141.51567
1986.00000,169.31381
1988.00000,154.46458
1990.00000,92.09638
1992.00000,149.29250
1994.00000,23.61246
1996.00000,79.43051
1998.00000,154.40311
2000.00000,42.09994
2002.00000,44.10256
2004.00000,34.74196
2006.00000,37.24422
2008.00000,56.05462
2010.00000,44.66747
2012.00000,59.43190
2014.00000,86.19576
2016.00000,53.20112
2018.00000,32.16712
2020.00000,56.19105
2022.00000,67.04652
2024.00000,38.33743
2026.00000,47.80752
2028.00000,65.11950
2030.00000,44.04650
2032.00000,23.89825
2034.00000,54.26468
2036.00000,19.37684
2038.00000,14.73305
2040.00000,52.41996
2042.00000,48.21376
2044.00000,20.51633
2046.00000,21.85264
2048.00000,34.16234
2050.00000,31.04019
2052.00000,28.31547
2054.00000,22.59604
2056.00000,42.11783
2058.00000,58.84353
2060.00000,33.59793
2062.00000,30.06008
2064.00000,41.36164
2066.00000,42.37591
2068.00000,38.04136
2070.00000,49.08726
2072.00000,36.82827
2074.00000,25.29912
2076.00000,37.10222
2078.00000,44.45138
2080.00000,20.08432
2082.00000,29.24522
2084.00000,57.55282
2086.00000,42.99524
2088.00000,8.45990
2090.00000,23.81955
2092.00000,48.48192
2094.00000,46.13193
2096.00000,56.87243
2098.00000,80.86138
2100.00000,89.63370
2102.00000,72.22399
2104.00000,46.53749
2106.00000,37.06613
2108.00000,48.43069
2110.00000,50.17899
2112.00000,26.36652
2114.00000,9.69808
2116.00000,30.23529
2118.00000,45.15535
2120.00000,29.82797
2122.00000,17.16963
2124.00000,36.73221
2126.00000,49.03222
2128.00000,42.80853
2130.00000,39.07139
2132.00000,43.48830
2134.00000,41.95093
2136.00000,49.17741
2138.00000,57.12128
2140.00000,42.51615
2142.00000,49.67087
2144.00000,64.29629
2146.00000,68.91009
2148.00000,68.60487
2150.00000,68.46062
2152.00000,56.39414
2154.00000,50.83102
2156.00000,53.59467
2158.00000,42.21510
2160.00000,56.63708
2162.00000,75.10652
2164.00000,64.41560
2166.00000,41.66544
2168.00000,63.01114
2170.00000,80.00030
2172.00000,58.68612
2174.00000,30.68826
2176.00000,45.86195
2178.00000,64.70535
2180.00000,78.88111
2182.00000,82.91082
2184.00000,65.59077
2186.00000,50.98034
2188.00000,23.70298
2190.00000,18.51997
2192.00000,56.15172
2194.00000,63.75258
2196.00000,36.00154
2198.00000,21.04156
2200.00000,26.65321
2202.00000,19.99736
2204.00000,41.35266
2206.00000,54.20810
2208.00000,44.80827
2210.00000,44.96308
2212.00000,60.22599
2214.00000,49.50084
2216.00000,36.67508
2218.00000,49.19821
2220.00000,58.78947
2222.00000,64.20229
2224.00000,68.49725
2226.00000,69.95248
2228.00000,62.26231
2230.00000,41.41624
2232.00000,23.34511
2234.00000,34.57121
2236.00000,59.34879
2238.00000,41.83945
2240.00000,28.94934
2242.00000,32.70126
2244.00000,35.57993
2246.00000,38.88465
2248.00000,67.45409
2250.00000,55.49605
2252.00000,25.72559
2254.00000,44.49195
2256.00000,64.24136
2258.00000,23.48050
2260.00000,17.80837
2262.00000,69.28474
2264.00000,52.36530
2266.00000,37.83341
2268.00000,67.52369
2270.00000,85.40778
2272.00000,49.10990
2274.00000,48.42990
2276.00000,54.38351
2278.00000,38.38672
2280.00000,27.75595
2282.00000,57.40200
2284.00000,66.23466
2286.00000,44.24286
2288.00000,36.32700
2290.00000,56.45318
2292.00000,27.51190
2294.00000,13.49851
2296.00000,31.56103
2298.00000,41.38417
2300.00000,43.16847
2302.00000,47.86362
2304.00000,36.41871
2306.00000,29.76306
2308.00000,67.09940
2310.00000,66.79214
2312.00000,45.94864
2314.00000,41.05869
2316.00000,51.69746
2318.00000,55.64429
2320.00000,30.86648
2322.00000,34.78363
2324.00000,76.00407
2326.00000,69.36356
2328.00000,55.52530
2330.00000,52.96337
2332.00000,51.67486
2334.00000,43.51711
2336.00000,37.88675
2338.00000,47.23896
2340.00000,45.69275
2342.00000,21.52046
2344.00000,17.66336
2346.00000,34.86584
2348.00000,42.95547
2350.00000,35.19823
2352.00000,33.78198
2354.00000,41.14706
2356.00000,79.04942
2358.00000,88.40672
2360.00000,30.88064
2362.00000,16.20716
2364.00000,64.44048
2366.00000,63.49686
2368.00000,15.55038
2370.00000,60.40923
2372.00000,92.34719
2374.00000,53.68527
2376.00000,17.02301
2378.00000,47.03418
2380.00000,49.20494
2382.00000,40.28788
2384.00000,43.42575
2386.00000,47.04089
2388.00000,37.00737
2390.00000,36.92968
2392.00000,12.62216
2394.00000,14.65041
2396.00000,84.79657
2398.00000,30.71708
2400.00000,32.34177
2402.00000,77.08798
2404.00000,42.56527
2406.00000,32.86278
2408.00000,55.86227
2410.00000,55.60611
2412.00000,28.21525
2414.00000,23.61825
2416.00000,20.28273
2418.00000,72.30972
2420.00000,106.11700
2422.00000,44.38536
2424.00000,31.64306
2426.00000,39.04725
2428.00000,62.84108
2430.00000,81.87353
2432.00000,40.65504
2434.00000,45.14808
2436.00000,44.38318
2438.00000,36.39278
2440.00000,70.27225
2442.00000,45.64698
2444.00000,24.79439
2446.00000,58.55772
2448.00000,94.91187
2450.00000,61.93557
2452.00000,71.35790
2454.00000,84.78634
2456.00000,67.97775
2458.00000,69.19345
2460.00000,55.48965
2462.00000,46.61421
2464.00000,50.69899
2466.00000,55.35194
2468.00000,62.41168
2470.00000,65.18109
2472.00000,84.58163
2474.00000,82.89658
2476.00000,23.63656
2478.00000,91.89923
2480.00000,102.79969
2482.00000,42.70023
2484.00000,74.95690
2486.00000,86.51083
2488.00000,67.09035
2490.00000,82.45589
2492.00000,112.52312
2494.00000,60.90557
2496.00000,70.12865
2498.00000,106.83311
2500.00000,89.94888
2502.00000,50.72585
2504.00000,79.74655
2506.00000,64.53820
2508.00000,38.49714
2510.00000,63.20164
2512.00000,21.70531
2514.00000,-2.91449
2516.00000,48.85599
2518.00000,94.04211
2520.00000,36.93982
2522.00000,26.70207
2524.00000,25.26501
2526.00000,13.38871
2528.00000,30.72379
2530.00000,47.98038
2532.00000,50.24365
2534.00000,45.05320
2536.00000,38.26593
2538.00000,22.82246
2540.00000,5.08956
2542.00000,15.11207
2544.00000,29.37599
2546.00000,3.02931
2548.00000,-13.75496
2550.00000,53.12353
2552.00000,92.91460
2554.00000,32.74140
2556.00000,21.51457
2558.00000,45.14840
2560.00000,49.23626
2562.00000,56.07008
2564.00000,102.26830
2566.00000,84.90347
2568.00000,83.44192
2570.00000,99.88136
2572.00000,84.34707
2574.00000,95.85032
2576.00000,110.82249
2578.00000,136.82193
2580.00000,141.84726
2582.00000,90.35575
2584.00000,144.04834
2586.00000,135.13216
2588.00000,77.33005
2590.00000,136.45372
2592.00000,174.55144
2594.00000,150.49120
2596.00000,138.93153
2598.00000,164.75235
2600.00000,148.86844
2602.00000,136.71402
2604.00000,133.11841
2606.00000,140.63135
2608.00000,157.30394
2610.00000,122.85506
2612.00000,114.68602
2614.00000,144.96960
2616.00000,133.35466
2618.00000,55.22945
2620.00000,79.15570
2622.00000,94.65627
2624.00000,56.75736
2626.00000,108.87721
2628.00000,130.34970
2630.00000,70.14148
2632.00000,40.58993
2634.00000,94.93777
2636.00000,57.26931
2638.00000,39.11261
2640.00000,92.01019
2642.00000,128.42763
2644.00000,78.72877
2646.00000,79.51881
2648.00000,83.29449
2650.00000,49.06221
2652.00000,45.53290
2654.00000,105.53059
2656.00000,83.71652
2658.00000,71.49726
2660.00000,128.96425
2662.00000,56.45664
2664.00000,17.55122
2666.00000,45.49736
2668.00000,67.76059
2670.00000,49.92832
2672.00000,28.21020
2674.00000,40.49151
2676.00000,62.41980
2678.00000,48.08510
2680.00000,27.31337
2682.00000,117.53835
2684.00000,132.39111
2686.00000,33.61910
2688.00000,74.34623
2690.00000,121.26830
2692.00000,45.65569
2694.00000,18.92010
2696.00000,146.22574
2698.00000,61.79862
2700.00000,42.61723
2702.00000,100.71165
2704.00000,70.65169
2706.00000,32.03806
2708.00000,132.78658
2710.00000,110.99453
2712.00000,9.39382
2714.00000,115.09306
2716.00000,127.70685
2718.00000,80.30338
2720.00000,84.76007
2722.00000,125.44216
2724.00000,111.00320
2726.00000,115.45350
2728.00000,126.92357
2730.00000,112.39586
2732.00000,98.27013
2734.00000,104.07548
2736.00000,103.98321
2738.00000,103.81580
2740.00000,126.86431
2742.00000,139.83888
2744.00000,80.84602
2746.00000,59.10866
2748.00000,100.09630
2750.00000,71.96382
2752.00000,115.07205
2754.00000,102.24316
2756.00000,60.37142
2758.00000,124.61916
2760.00000,94.32434
2762.00000,49.07434
2764.00000,79.96001
2766.00000,124.40724
2768.00000,72.19778
2770.00000,77.23534
2772.00000,123.02896
2774.00000,108.96388
2776.00000,28.90628
2778.00000,-3.04844
2780.00000,57.92772
2782.00000,74.41133
2784.00000,7.32799
2786.00000,76.53555
2788.00000,55.25245
2790.00000,-23.03918
2792.00000,39.13309
2794.00000,197.63640
2796.00000,72.47167
2798.00000,4.84408
2800.00000,102.60864
2802.00000,103.67300
2804.00000,54.62953
2806.00000,60.33997
2808.00000,104.85536
2810.00000,113.22292
2812.00000,76.41751
2814.00000,66.45568
2816.00000,77.60380
2818.00000,49.77755
2820.00000,-1.28615
2822.00000,74.93265
2824.00000,141.49637
2826.00000,102.66253
2828.00000,25.89513
2830.00000,31.95814
2832.00000,120.72829
2834.00000,152.81847
2836.00000,135.02792
2838.00000,192.19504
2840.00000,182.13071
2842.00000,269.11072
2844.00000,340.77502
2846.00000,242.06995
2848.00000,293.20493
2850.00000,378.91626
2852.00000,410.97641
2854.00000,435.52573
2856.00000,480.90152
2858.00000,437.69363
2860.00000,462.53741
2862.00000,537.68463
2864.00000,524.27618
2866.00000,595.55823
2868.00000,634.75201
2870.00000,576.65344
2872.00000,517.90674
2874.00000,557.65466
2876.00000,570.91754
2878.00000,573.67413
2880.00000,577.18884
2882.00000,546.11334
2884.00000,571.34717
2886.00000,554.10962
2888.00000,553.91895
2890.00000,636.05786
2892.00000,622.50299
2894.00000,614.91290
2896.00000,650.86768
2898.00000,693.43439
2900.00000,712.42255
2902.00000,690.59515
2904.00000,776.42542
2906.00000,814.57220
2908.00000,678.52808
2910.00000,791.59094
2912.00000,831.34229
2914.00000,803.37311
2916.00000,855.40698
2918.00000,851.19281
2920.00000,829.34735
2922.00000,857.35437
2924.00000,901.21948
2926.00000,862.92279
2928.00000,758.80145
2930.00000,779.13031
2932.00000,844.37115
2934.00000,807.81830
2936.00000,786.74408
2938.00000,800.78455
2940.00000,709.40802
2942.00000,600.29205
2944.00000,657.22736
2946.00000,520.87769
2948.00000,460.89523
2950.00000,473.06372
2952.00000,376.78372
2954.00000,420.84793
2956.00000,371.51266
2958.00000,264.94400
2960.00000,287.27261
2962.00000,362.84744
2964.00000,191.26733
2966.00000,228.99210
2968.00000,381.36908
2970.00000,178.29335
2972.00000,117.68712
2974.00000,249.42094
2976.00000,226.28142
2978.00000,70.26900
2980.00000,253.98518
2982.00000,217.35809
2984.00000,62.25854
2986.00000,62.35530
2988.00000,115.33705
2990.00000,54.56357
2992.00000,76.58079
2994.00000,106.15837
2996.00000,-0.02553
2998.00000,-1.27341
3000.00000,94.36490
3002.00000,76.38435
3004.00000,8.45647
3006.00000,137.45335
3008.00000,102.10954
3010.00000,18.70337
3012.00000,69.42104
3014.00000,140.88165
3016.00000,15.31219
3018.00000,91.55648
3020.00000,198.43268
3022.00000,89.50115
3024.00000,63.45156
3026.00000,196.93417
3028.00000,226.82245
3030.00000,207.44800
3032.00000,350.45551
3034.00000,303.49683
3036.00000,334.05103
3038.00000,438.30167
3040.00000,447.36102
3042.00000,490.44492
3044.00000,509.77615
3046.00000,470.78873
3048.00000,521.48615
3050.00000,733.79834
3052.00000,699.51318
3054.00000,768.53424
3056.00000,879.37708
3058.00000,763.14221
3060.00000,802.48627
3062.00000,886.22229
3064.00000,783.28619
3066.00000,627.02747
3068.00000,738.94830
3070.00000,728.27747
3072.00000,559.53375
3074.00000,437.16772
3076.00000,451.33505
3078.00000,439.68796
3080.00000,344.03384
3082.00000,254.86790
3084.00000,277.26065
3086.00000,347.47983
3088.00000,209.70445
3090.00000,203.06821
3092.00000,259.92126
3094.00000,64.37476
3096.00000,329.20892
3098.00000,317.37976
3100.00000,72.11722
3102.00000,183.11470
3104.00000,317.80103
3106.00000,215.77448
3108.00000,112.13985
3110.00000,222.13925
3112.00000,337.46884
3114.00000,175.84892
3116.00000,219.29959
3118.00000,335.55548
3120.00000,124.09437
3122.00000,132.34663
3124.00000,156.71738
3126.00000,139.64751
3128.00000,156.93626
3130.00000,142.73402
3132.00000,164.01953
3134.00000,275.06909
3136.00000,285.21078
3138.00000,108.76212
3140.00000,220.79288
3142.00000,218.70732
3144.00000,107.82040
3146.00000,188.48482
3148.00000,300.98669
3150.00000,150.17657
3152.00000,50.01448
3154.00000,188.60677
3156.00000,279.47330
3158.00000,241.67630
3160.00000,180.38795
3162.00000,244.46773
3164.00000,330.94400
3166.00000,138.37408
3168.00000,245.42000
3170.00000,325.89771
3172.00000,179.37451
3174.00000,329.07986
3176.00000,301.93311
3178.00000,242.87737
3180.00000,315.51077
3182.00000,351.16699
3184.00000,243.58694
3186.00000,183.48703
3188.00000,310.87405
3190.00000,350.87689
3192.00000,24.97625
3194.00000,363.61301
3196.00000,483.62256
3198.00000,121.04013
3200.00000,226.39711
