300.00000,33.27401
302.00000,39.03672
304.00000,50.52556
306.00000,67.06396
308.00000,79.89900
310.00000,86.05313
312.00000,94.32497
314.00000,109.59148
316.00000,135.06850
318.00000,132.94528
320.00000,89.98251
322.00000,77.56172
324.00000,93.67422
326.00000,110.84543
328.00000,101.29681
330.00000,63.31315
332.00000,44.75501
334.00000,34.68330
336.00000,33.93590
338.00000,49.09756
340.00000,52.77138
342.00000,51.21263
344.00000,53.42100
346.00000,63.02726
348.00000,88.79321
350.00000,145.34123
352.00000,182.57297
354.00000,192.88857
356.00000,212.36870
358.00000,245.36617
360.00000,246.12422
362.00000,208.96303
364.00000,170.47530
366.00000,152.59096
368.00000,114.76751
370.00000,78.83186
372.00000,62.61874
374.00000,63.57606
376.00000,73.83839
378.00000,54.95669
380.00000,36.78059
382.00000,44.60575
384.00000,59.73085
386.00000,76.07126
388.00000,84.10317
390.00000,99.07642
392.00000,121.24885
394.00000,123.09292
396.00000,165.31010
398.00000,223.93782
400.00000,262.90900
402.00000,289.29236
404.00000,301.33401
406.00000,291.54929
408.00000,272.46671
410.00000,278.61124
412.00000,332.62045
414.00000,389.17007
416.00000,432.93369
418.00000,476.65808
420.00000,534.15533
422.00000,606.76837
424.00000,683.70703
426.00000,760.81427
428.00000,847.48633
430.00000,958.34985
432.00000,1090.21179
434.00000,1205.48328
436.00000,1296.13806
438.00000,1385.87256
440.00000,1466.69226
442.00000,1527.71814
444.00000,1568.48657
446.00000,1593.16162
448.00000,1597.33679
450.00000,1563.22693
452.00000,1495.51416
454.00000,1411.12317
456.00000,1308.97302
458.00000,1166.62109
460.00000,1039.03113
462.00000,930.86841
464.00000,812.61664
466.00000,686.25891
468.00000,567.75134
470.00000,453.86163
472.00000,351.45038
474.00000,276.48019
476.00000,222.34853
478.00000,179.92189
480.00000,138.81046
482.00000,101.87511
484.00000,82.85158
486.00000,69.22267
488.00000,53.57249
490.00000,43.67563
492.00000,46.87260
494.00000,55.75278
496.00000,84.75491
498.00000,82.01399
500.00000,42.70271
502.00000,46.14781
504.00000,47.63803
506.00000,68.99076
508.00000,81.76882
510.00000,46.48685
512.00000,41.81256
514.00000,34.03201
516.00000,38.75584
518.00000,74.54472
520.00000,95.28592
522.00000,76.82112
524.00000,46.95834
526.00000,30.66896
528.00000,32.59679
530.00000,50.83651
532.00000,51.47454
534.00000,38.59830
536.00000,36.37846
538.00000,49.55121
540.00000,60.86031
542.00000,45.89897
544.00000,31.56234
546.00000,44.58224
548.00000,40.83710
550.00000,42.56116
552.00000,45.89064
554.00000,41.55781
556.00000,48.62111
558.00000,77.75435
560.00000,101.31347
562.00000,109.42436
564.00000,118.02922
566.00000,134.27206
568.00000,150.99675
570.00000,176.61469
572.00000,217.23668
574.00000,260.50620
576.00000,290.82083
578.00000,300.80338
580.00000,325.58673
582.00000,399.41861
584.00000,480.72690
586.00000,484.97131
588.00000,518.85217
590.00000,633.46063
592.00000,720.60754
594.00000,794.87134
596.00000,874.29114
598.00000,962.79584
600.00000,1050.96057
602.00000,1118.51465
604.00000,1157.12000
606.00000,1190.12488
608.00000,1226.09912
610.00000,1246.50684
612.00000,1255.21313
614.00000,1254.51697
616.00000,1254.38440
618.00000,1240.88831
620.00000,1169.00085
622.00000,1071.57068
624.00000,945.90698
626.00000,799.75781
628.00000,670.90790
630.00000,557.59949
632.00000,466.37045
634.00000,390.60751
636.00000,321.18350
638.00000,276.28671
640.00000,291.22379
642.00000,312.70490
644.00000,287.20663
646.00000,227.58372
648.00000,169.28836
650.00000,125.72096
652.00000,96.36371
654.00000,73.13836
656.00000,48.56535
658.00000,38.09901
660.00000,55.79939
662.00000,72.17603
664.00000,53.40253
666.00000,48.37289
668.00000,62.91818
670.00000,74.50832
672.00000,81.88708
674.00000,103.40054
676.00000,86.83066
678.00000,72.81454
680.00000,82.73302
682.00000,77.73643
684.00000,64.63416
686.00000,57.29031
688.00000,58.08398
690.00000,66.96690
692.00000,83.66960
694.00000,81.01546
696.00000,65.13333
698.00000,57.04248
700.00000,66.63010
702.00000,86.00761
704.00000,89.27625
706.00000,80.43542
708.00000,77.49106
710.00000,81.94943
712.00000,90.87717
714.00000,72.78526
716.00000,37.56037
718.00000,27.55848
720.00000,32.46531
722.00000,27.92711
724.00000,16.41124
726.00000,11.84838
728.00000,16.84888
730.00000,34.30947
732.00000,39.24361
734.00000,28.59664
736.00000,24.58212
738.00000,30.44679
740.00000,50.60295
742.00000,50.19290
744.00000,23.21514
746.00000,21.18981
748.00000,30.19740
750.00000,40.03760
752.00000,42.53940
754.00000,36.16258
756.00000,39.53579
758.00000,47.34091
760.00000,49.61359
762.00000,44.65783
764.00000,37.83295
766.00000,31.46090
768.00000,31.10242
770.00000,30.00805
772.00000,23.70726
774.00000,33.68552
776.00000,60.31428
778.00000,96.23134
780.00000,126.70387
782.00000,129.27107
784.00000,95.83449
786.00000,82.38414
788.00000,93.53192
790.00000,94.55439
792.00000,108.49670
794.00000,138.80342
796.00000,194.04829
798.00000,266.68832
800.00000,316.00140
802.00000,302.97614
804.00000,233.97150
806.00000,165.35385
808.00000,132.48260
810.00000,91.69146
812.00000,52.64100
814.00000,49.28652
816.00000,77.50957
818.00000,91.94798
820.00000,89.27776
822.00000,110.74915
824.00000,132.64122
826.00000,120.96088
828.00000,125.08974
830.00000,97.15002
832.00000,69.92711
834.00000,77.87592
836.00000,80.37985
838.00000,57.86551
840.00000,47.06831
842.00000,68.34267
844.00000,102.08045
846.00000,118.74355
848.00000,107.77754
850.00000,76.50663
852.00000,45.32415
854.00000,37.05579
856.00000,55.13006
858.00000,56.75087
860.00000,37.95461
862.00000,28.97944
864.00000,33.71415
866.00000,37.07089
868.00000,31.09543
870.00000,27.48227
872.00000,41.43857
874.00000,56.72351
876.00000,53.12050
878.00000,42.30663
880.00000,52.13305
882.00000,79.22903
884.00000,70.92752
886.00000,49.79536
888.00000,42.76991
890.00000,41.28670
892.00000,62.54733
894.00000,63.31084
896.00000,58.14805
898.00000,82.01714
900.00000,98.48793
902.00000,85.80229
904.00000,83.81530
906.00000,104.95332
908.00000,113.20773
910.00000,114.64339
912.00000,123.41634
914.00000,129.27960
916.00000,117.98734
918.00000,105.23270
920.00000,118.28478
922.00000,118.33999
924.00000,85.16389
926.00000,65.82349
928.00000,97.88388
930.00000,84.88896
932.00000,41.03571
934.00000,38.51904
936.00000,53.68278
938.00000,60.75619
940.00000,36.70607
942.00000,25.09871
944.00000,75.41528
946.00000,104.82956
948.00000,105.45418
950.00000,98.03930
952.00000,100.80967
954.00000,116.65398
956.00000,102.74988
958.00000,65.59481
960.00000,41.60726
962.00000,51.57300
964.00000,75.71696
966.00000,69.53365
968.00000,44.85651
970.00000,43.42608
972.00000,72.12817
974.00000,96.39952
976.00000,69.73316
978.00000,45.03856
980.00000,85.76255
982.00000,89.59693
984.00000,111.25516
986.00000,135.09993
988.00000,135.44243
990.00000,179.10739
992.00000,258.85193
994.00000,375.69531
996.00000,523.86951
998.00000,696.64612
1000.00000,882.45624
1002.00000,887.09924
1004.00000,737.85614
1006.00000,556.92731
1008.00000,362.66998
1010.00000,254.73172
1012.00000,199.87456
1014.00000,166.05399
1016.00000,176.28014
1018.00000,210.31030
1020.00000,192.97179
1022.00000,171.11252
1024.00000,206.83537
1026.00000,258.74698
1028.00000,292.79318
1030.00000,287.53857
1032.00000,278.08734
1034.00000,283.20441
1036.00000,227.61812
1038.00000,190.61929
1040.00000,145.02257
1042.00000,85.61032
1044.00000,109.46831
1046.00000,132.38562
1048.00000,109.24036
1050.00000,71.53023
1052.00000,62.70166
1054.00000,71.87663
1056.00000,90.62608
1058.00000,112.21426
1060.00000,145.03671
1062.00000,202.73706
1064.00000,257.21957
1066.00000,292.38782
1068.00000,303.82407
1070.00000,289.30359
1072.00000,254.66341
1074.00000,243.22816
1076.00000,272.43246
1078.00000,339.60336
1080.00000,461.51682
1082.00000,682.02771
1084.00000,924.34406
1086.00000,1064.22546
1088.00000,1045.81689
1090.00000,922.23169
1092.00000,720.78387
1094.00000,557.67212
1096.00000,487.05505
1098.00000,433.28613
1100.00000,378.85696
1102.00000,292.46725
1104.00000,231.47079
1106.00000,230.88179
1108.00000,178.91884
1110.00000,144.27139
1112.00000,174.36180
1114.00000,193.42497
1116.00000,133.90601
1118.00000,158.85620
1120.00000,162.76277
1122.00000,124.96854
1124.00000,123.26566
1126.00000,114.60062
1128.00000,96.57257
1130.00000,74.47012
1132.00000,50.44026
1134.00000,34.26095
1136.00000,43.59943
1138.00000,37.60110
1140.00000,23.42811
1142.00000,31.41185
1144.00000,39.45951
1146.00000,54.90497
1148.00000,103.11816
1150.00000,165.88289
1152.00000,213.03273
1154.00000,307.25601
1156.00000,408.74292
1158.00000,458.43082
1160.00000,440.86182
1162.00000,386.40829
1164.00000,345.07150
1166.00000,328.51239
1168.00000,326.81287
1170.00000,324.09076
1172.00000,294.02249
1174.00000,252.82985
1176.00000,205.51039
1178.00000,186.43082
1180.00000,248.37573
1182.00000,238.34801
1184.00000,188.03085
1186.00000,175.20686
1188.00000,177.67931
1190.00000,154.03084
1192.00000,125.71249
1194.00000,126.61118
1196.00000,156.68907
1198.00000,173.74359
1200.00000,143.31172
1202.00000,137.12465
1204.00000,142.61736
1206.00000,93.67223
1208.00000,100.64937
1210.00000,66.58110
1212.00000,23.48532
1214.00000,36.43447
1216.00000,18.97153
1218.00000,6.70721
1220.00000,10.07422
1222.00000,18.26649
1224.00000,23.18574
1226.00000,14.54409
1228.00000,19.58370
1230.00000,46.56112
1232.00000,65.35859
1234.00000,53.81174
1236.00000,85.92448
1238.00000,189.50163
1240.00000,308.83585
1242.00000,383.69904
1244.00000,454.16986
1246.00000,544.17322
1248.00000,608.29535
1250.00000,671.69788
1252.00000,856.30853
1254.00000,1079.03784
1256.00000,1347.97595
1258.00000,1692.38855
1260.00000,2041.79846
1262.00000,2227.92261
1264.00000,2180.14917
1266.00000,1926.38672
1268.00000,1521.68494
1270.00000,1051.90527
1272.00000,732.87994
1274.00000,485.64554
1276.00000,290.24112
1278.00000,210.20831
1280.00000,110.57054
1282.00000,83.29266
1284.00000,105.44871
1286.00000,115.34656
1288.00000,156.96236
1290.00000,214.77664
1292.00000,302.26523
1294.00000,407.95367
1296.00000,485.03351
1298.00000,509.74796
1300.00000,500.11673
1302.00000,482.68573
1304.00000,474.66589
1306.00000,483.32501
1308.00000,524.69708
1310.00000,670.73663
1312.00000,877.24646
1314.00000,1117.50305
1316.00000,1570.85059
1318.00000,2069.76074
1320.00000,2633.58887
1322.00000,3238.33887
1324.00000,3647.88696
1326.00000,3895.63354
1328.00000,3995.38745
1330.00000,3979.72119
1332.00000,3873.97876
1334.00000,3623.06982
1336.00000,3259.19971
1338.00000,2836.01758
1340.00000,2402.20386
1342.00000,2035.10437
1344.00000,1856.61658
1346.00000,1741.29443
1348.00000,1787.64148
1350.00000,2014.80298
1352.00000,1927.80688
1354.00000,1746.85791
1356.00000,1476.71802
1358.00000,1141.07141
1360.00000,952.17767
1362.00000,726.26459
1364.00000,567.43970
1366.00000,455.52609
1368.00000,284.31067
1370.00000,189.61739
1372.00000,182.01421
1374.00000,143.22630
1376.00000,70.05007
1378.00000,70.36626
1380.00000,32.91195
1382.00000,26.84727
1384.00000,35.79012
1386.00000,27.41161
1388.00000,120.69327
1390.00000,152.98831
1392.00000,196.94223
1394.00000,318.21838
1396.00000,425.55582
1398.00000,584.32178
1400.00000,742.29071
1402.00000,820.07648
1404.00000,809.98273
1406.00000,751.06952
1408.00000,573.41364
1410.00000,421.86862
1412.00000,355.73047
1414.00000,255.78816
1416.00000,196.97412
1418.00000,183.33682
1420.00000,171.98694
1422.00000,142.47148
1424.00000,122.57010
1426.00000,134.48068
1428.00000,137.51616
1430.00000,117.44279
1432.00000,124.68499
1434.00000,184.94189
1436.00000,237.36609
1438.00000,276.71643
1440.00000,285.23419
1442.00000,192.23839
1444.00000,179.34781
1446.00000,194.06256
1448.00000,177.58128
1450.00000,193.30194
1452.00000,201.95180
1454.00000,215.95868
1456.00000,221.85715
1458.00000,187.31746
1460.00000,129.06870
1462.00000,111.95287
1464.00000,84.14056
1466.00000,48.10282
1468.00000,63.43347
1470.00000,43.43790
1472.00000,26.93294
1474.00000,32.46092
1476.00000,55.78456
1478.00000,110.04233
1480.00000,124.33843
1482.00000,184.27039
1484.00000,304.32013
1486.00000,394.65240
1488.00000,493.68204
1490.00000,540.86542
1492.00000,548.63263
1494.00000,574.13391
1496.00000,615.47845
1498.00000,663.54285
1500.00000,703.41302
1502.00000,730.73126
1504.00000,756.09790
1506.00000,783.62097
1508.00000,777.10498
1510.00000,777.06525
1512.00000,778.67725
1514.00000,673.91248
1516.00000,532.80902
1518.00000,370.51749
1520.00000,258.50858
1522.00000,225.88530
1524.00000,83.59378
1526.00000,59.11126
1528.00000,97.01546
1530.00000,57.92214
1532.00000,53.90936
1534.00000,40.31184
1536.00000,43.66379
1538.00000,96.39955
1540.00000,149.63573
1542.00000,122.99725
1544.00000,139.31229
1546.00000,215.08824
1548.00000,243.72424
1550.00000,173.29333
1552.00000,131.96957
1554.00000,123.60229
1556.00000,97.92130
1558.00000,58.12463
1560.00000,52.29668
1562.00000,23.30693
1564.00000,46.88377
1566.00000,152.07384
1568.00000,198.59338
1570.00000,204.13017
1572.00000,349.18707
1574.00000,533.61041
1576.00000,595.06567
1578.00000,782.72906
1580.00000,956.16687
1582.00000,1156.86340
1584.00000,1510.05835
1586.00000,1929.37329
1588.00000,2231.17188
1590.00000,2630.07593
1592.00000,2895.24023
1594.00000,2737.12036
1596.00000,2687.59668
1598.00000,2579.36377
1600.00000,2343.15283
1602.00000,2066.14258
1604.00000,1756.81262
1606.00000,1400.07312
1608.00000,1108.07813
1610.00000,864.03113
1612.00000,629.49762
1614.00000,545.62531
1616.00000,410.87540
1618.00000,292.01550
1620.00000,250.53349
1622.00000,148.77927
1624.00000,93.45478
1626.00000,89.00367
1628.00000,59.63931
1630.00000,25.55707
1632.00000,119.88940
1634.00000,127.43719
1636.00000,87.79156
1638.00000,87.01339
1640.00000,49.82253
1642.00000,23.07404
1644.00000,102.31808
1646.00000,137.49698
1648.00000,30.26405
1650.00000,50.08247
1652.00000,52.01946
1654.00000,102.67291
1656.00000,168.07294
1658.00000,93.81054
1660.00000,214.38011
1662.00000,200.22609
1664.00000,166.32417
1666.00000,354.99554
1668.00000,321.96152
1670.00000,212.14845
1672.00000,192.75703
1674.00000,204.11208
1676.00000,120.56237
1678.00000,60.73375
1680.00000,49.02642
1682.00000,86.11650
1684.00000,130.13860
1686.00000,88.58077
1688.00000,74.77598
1690.00000,83.08990
1692.00000,49.04614
1694.00000,7.78724
1696.00000,74.91033
1698.00000,40.61464
1700.00000,22.21054
1702.00000,136.31146
1704.00000,71.02220
1706.00000,65.68762
1708.00000,73.72269
1710.00000,31.05621
1712.00000,46.64604
1714.00000,71.76249
1716.00000,76.67300
1718.00000,59.88403
1720.00000,40.85832
1722.00000,46.78257
1724.00000,68.29622
1726.00000,104.23196
1728.00000,118.18302
1730.00000,84.06624
1732.00000,86.89770
1734.00000,85.62778
1736.00000,120.97987
1738.00000,175.97691
1740.00000,101.50765
1742.00000,105.29668
1744.00000,137.77904
1746.00000,119.69802
1748.00000,108.28952
1750.00000,108.75766
1752.00000,86.85969
1754.00000,81.91869
1756.00000,111.66588
1758.00000,109.60886
1760.00000,137.28951
1762.00000,136.42577
1764.00000,86.53188
1766.00000,62.10529
1768.00000,76.26102
1770.00000,85.51987
1772.00000,62.11246
1774.00000,55.51499
1776.00000,119.65163
1778.00000,94.43153
1780.00000,85.60959
1782.00000,149.26659
1784.00000,160.33199
1786.00000,86.30808
1788.00000,78.08883
1790.00000,121.35957
1792.00000,115.33083
1794.00000,86.28308
1796.00000,125.02365
1798.00000,126.31454
1800.00000,117.11185
1802.00000,175.62329
1804.00000,97.51630
1806.00000,84.91741
1808.00000,152.73170
1810.00000,137.82170
1812.00000,56.80087
1814.00000,192.00298
1816.00000,187.93068
1818.00000,88.57656
1820.00000,196.22096
1822.00000,95.00238
1824.00000,126.86408
1826.00000,164.60934
1828.00000,82.35480
1830.00000,183.99820
1832.00000,131.59435
1834.00000,123.22848
1836.00000,135.60034
1838.00000,23.65112
1840.00000,172.63737
1842.00000,99.14658
1844.00000,50.80522
1846.00000,203.13419
1848.00000,89.33865
1850.00000,124.36710
1852.00000,104.36745
1854.00000,68.62172
1856.00000,198.24535
1858.00000,77.03661
1860.00000,57.41232
1862.00000,90.17345
1864.00000,19.91451
1866.00000,22.39286
1868.00000,74.22740
1870.00000,58.54208
1872.00000,60.21199
1874.00000,148.32661
1876.00000,85.33771
1878.00000,60.82264
1880.00000,174.58966
1882.00000,221.56001
1884.00000,66.00829
1886.00000,207.72086
1888.00000,211.54507
1890.00000,75.99226
1892.00000,158.71393
1894.00000,169.15329
1896.00000,197.25700
1898.00000,146.62225
1900.00000,43.78496
1902.00000,132.50174
1904.00000,206.76596
1906.00000,99.07304
1908.00000,47.16967
1910.00000,200.86444
1912.00000,162.06888
1914.00000,137.87161
1916.00000,157.14236
1918.00000,128.62202
1920.00000,105.58178
1922.00000,185.85916
1924.00000,166.56247
1926.00000,163.43681
1928.00000,264.21777
1930.00000,109.94380
1932.00000,204.47818
1934.00000,273.33099
1936.00000,136.35167
1938.00000,189.78397
1940.00000,261.35553
1942.00000,207.93372
1944.00000,159.30305
1946.00000,198.67009
1948.00000,147.79074
1950.00000,247.37758
1952.00000,158.36636
1954.00000,22.70651
1956.00000,321.07019
1958.00000,158.59671
1960.00000,125.38757
1962.00000,217.54903
1964.00000,119.21283
1966.00000,294.48843
1968.00000,124.63805
1970.00000,136.39919
1972.00000,345.56052
1974.00000,49.18821
1976.00000,107.09080
1978.00000,220.06049
1980.00000,163.60762
1982.00000,108.24083
1984.00000,115.75693
1986.00000,190.12552
1988.00000,125.61932
1990.00000,36.66191
1992.00000,174.42477
1994.00000,129.05855
1996.00000,107.48118
1998.00000,140.27341
2000.00000,85.41275
2002.00000,94.75512
2004.00000,96.01111
2006.00000,91.16219
2008.00000,89.64342
2010.00000,94.80785
2012.00000,108.68832
2014.00000,118.35461
2016.00000,112.89394
2018.00000,113.18247
2020.00000,110.59749
2022.00000,100.68117
2024.00000,99.55625
2026.00000,115.92724
2028.00000,94.79610
2030.00000,94.27509
2032.00000,130.42760
2034.00000,127.69418
2036.00000,106.92820
2038.00000,117.22562
2040.00000,118.41489
2042.00000,84.15424
2044.00000,109.54766
2046.00000,112.29877
2048.00000,84.09227
2050.00000,82.93792
2052.00000,112.53803
2054.00000,87.48697
2056.00000,93.77467
2058.00000,127.05655
2060.00000,99.07369
2062.00000,79.84017
2064.00000,96.06750
2066.00000,94.24000
2068.00000,59.48829
2070.00000,64.56445
2072.00000,78.84055
2074.00000,72.79513
2076.00000,52.07948
2078.00000,43.48964
2080.00000,57.28252
2082.00000,54.29311
2084.00000,35.87514
2086.00000,28.38222
2088.00000,26.77434
2090.00000,36.25277
2092.00000,59.33974
2094.00000,66.44530
2096.00000,38.24512
2098.00000,52.98028
2100.00000,46.89140
2102.00000,36.69939
2104.00000,78.36523
2106.00000,79.02136
2108.00000,58.78856
2110.00000,56.93634
2112.00000,69.05683
2114.00000,70.64471
2116.00000,96.31195
2118.00000,92.36615
2120.00000,61.97543
2122.00000,78.04473
2124.00000,120.28467
2126.00000,99.72301
2128.00000,71.75764
2130.00000,105.74505
2132.00000,121.14857
2134.00000,104.62937
2136.00000,92.82233
2138.00000,94.80482
2140.00000,88.77845
2142.00000,95.99528
2144.00000,101.22852
2146.00000,97.78194
2148.00000,97.34497
2150.00000,101.87383
2152.00000,97.19025
2154.00000,96.90950
2156.00000,101.17462
2158.00000,93.21642
2160.00000,114.42256
2162.00000,105.18150
2164.00000,95.46797
2166.00000,143.10504
2168.00000,131.10962
2170.00000,111.67326
2172.00000,132.85260
2174.00000,154.69322
2176.00000,113.96812
2178.00000,77.69691
2180.00000,81.63565
2182.00000,110.72775
2184.00000,129.27289
2186.00000,113.53948
2188.00000,86.66097
2190.00000,86.67625
2192.00000,106.81690
2194.00000,88.89601
2196.00000,60.02659
2198.00000,82.23287
2200.00000,122.21487
2202.00000,91.10235
2204.00000,73.01442
2206.00000,92.02450
2208.00000,102.45057
2210.00000,85.00937
2212.00000,103.32932
2214.00000,124.81369
2216.00000,109.88229
2218.00000,77.24142
2220.00000,75.72221
2222.00000,73.39706
2224.00000,90.08424
2226.00000,119.09244
2228.00000,118.88721
2230.00000,110.05139
2232.00000,152.91185
2234.00000,154.30589
2236.00000,78.57740
2238.00000,96.44164
2240.00000,129.23470
2242.00000,109.61803
2244.00000,77.96552
2246.00000,92.96181
2248.00000,83.83995
2250.00000,81.07168
2252.00000,102.04076
2254.00000,110.27069
2256.00000,85.21263
2258.00000,91.09513
2260.00000,107.49318
2262.00000,111.80862
2264.00000,130.83257
2266.00000,114.92038
2268.00000,103.41776
2270.00000,109.70723
2272.00000,99.65300
2274.00000,82.38285
2276.00000,78.77676
2278.00000,76.01646
2280.00000,72.71027
2282.00000,86.00078
2284.00000,42.19271
2286.00000,26.63610
2288.00000,69.18559
2290.00000,74.00101
2292.00000,34.38310
2294.00000,54.64223
2296.00000,88.78381
2298.00000,59.58014
2300.00000,51.84703
2302.00000,54.18430
2304.00000,58.91875
2306.00000,64.13974
2308.00000,56.76381
2310.00000,39.13016
2312.00000,49.15688
2314.00000,73.00853
2316.00000,63.97511
2318.00000,38.81143
2320.00000,72.25584
2322.00000,69.51701
2324.00000,17.54556
2326.00000,75.42999
2328.00000,105.33404
2330.00000,67.59495
2332.00000,30.10233
2334.00000,44.32623
2336.00000,62.08942
2338.00000,66.08096
2340.00000,44.76295
2342.00000,27.85193
2344.00000,76.53468
2346.00000,106.71835
2348.00000,64.96174
2350.00000,26.47534
2352.00000,70.77920
2354.00000,57.69751
2356.00000,29.55459
2358.00000,53.86087
2360.00000,86.91847
2362.00000,33.69225
2364.00000,27.28221
2366.00000,48.90018
2368.00000,57.23475
2370.00000,87.06934
2372.00000,32.71415
2374.00000,1.49244
2376.00000,51.70698
2378.00000,87.29787
2380.00000,36.96069
2382.00000,27.80128
2384.00000,45.09479
2386.00000,27.95075
2388.00000,30.38403
2390.00000,41.30122
2392.00000,30.17305
2394.00000,37.28521
2396.00000,84.74381
2398.00000,27.65776
2400.00000,-10.14369
2402.00000,12.47951
2404.00000,25.35407
2406.00000,20.85377
2408.00000,18.35631
2410.00000,50.45298
2412.00000,74.60191
2414.00000,35.23077
2416.00000,58.27993
2418.00000,54.57420
2420.00000,18.87939
2422.00000,42.68172
2424.00000,80.41778
2426.00000,42.60454
2428.00000,64.98394
2430.00000,146.01169
2432.00000,65.97837
2434.00000,81.03978
2436.00000,129.15616
2438.00000,84.66455
2440.00000,37.38287
2442.00000,160.12756
2444.00000,144.51021
2446.00000,49.94440
2448.00000,91.27518
2450.00000,132.74196
2452.00000,83.22934
2454.00000,78.41663
2456.00000,136.25485
2458.00000,124.63231
2460.00000,141.90825
2462.00000,110.18507
2464.00000,85.39441
2466.00000,138.40140
2468.00000,112.50246
2470.00000,76.72498
2472.00000,89.33848
2474.00000,110.64520
2476.00000,85.94516
2478.00000,88.00969
2480.00000,91.17397
2482.00000,84.30646
2484.00000,75.01653
2486.00000,18.00045
2488.00000,23.52955
2490.00000,105.66055
2492.00000,131.51729
2494.00000,21.61703
2496.00000,38.54513
2498.00000,56.83061
2500.00000,24.70618
2502.00000,67.83570
2504.00000,39.59421
2506.00000,43.43272
2508.00000,78.17378
2510.00000,57.19199
2512.00000,22.72270
2514.00000,30.14141
2516.00000,38.06814
2518.00000,28.86808
2520.00000,42.31162
2522.00000,34.81024
2524.00000,30.66871
2526.00000,44.73153
2528.00000,51.06986
2530.00000,33.58514
2532.00000,37.22696
2534.00000,27.91085
2536.00000,13.60558
2538.00000,60.34967
2540.00000,23.53394
2542.00000,5.71506
2544.00000,39.09879
2546.00000,22.45664
2548.00000,4.08122
2550.00000,41.01906
2552.00000,62.84626
2554.00000,24.46798
2556.00000,20.61441
2558.00000,22.08113
2560.00000,13.62660
2562.00000,8.25715
2564.00000,16.08796
2566.00000,28.14866
2568.00000,36.85635
2570.00000,25.01980
2572.00000,14.12930
2574.00000,59.15160
2576.00000,34.55126
2578.00000,1.87890
2580.00000,40.05732
2582.00000,82.84813
2584.00000,94.75607
2586.00000,35.59361
2588.00000,9.10975
2590.00000,91.87882
2592.00000,84.18454
2594.00000,31.72602
2596.00000,63.43490
2598.00000,126.25775
2600.00000,50.25949
2602.00000,80.71725
2604.00000,135.11160
2606.00000,105.15115
2608.00000,85.66667
2610.00000,152.35649
2612.00000,122.38245
2614.00000,57.69880
2616.00000,84.38788
2618.00000,69.62610
2620.00000,77.16508
2622.00000,95.43777
2624.00000,80.94032
2626.00000,54.55123
2628.00000,62.63501
2630.00000,53.63752
2632.00000,50.40299
2634.00000,73.92899
2636.00000,15.78884
2638.00000,9.87972
2640.00000,42.82022
2642.00000,32.60158
2644.00000,21.79260
2646.00000,98.74142
2648.00000,75.36024
2650.00000,-1.34659
2652.00000,71.80349
2654.00000,99.05841
2656.00000,51.78766
2658.00000,76.32101
2660.00000,141.64146
2662.00000,19.43412
2664.00000,62.35291
2666.00000,129.03580
2668.00000,92.89367
2670.00000,101.84936
2672.00000,68.56887
2674.00000,63.65416
2676.00000,54.49407
2678.00000,27.55163
2680.00000,134.80415
2682.00000,102.48158
2684.00000,58.40886
2686.00000,126.54019
2688.00000,117.79896
2690.00000,70.16846
2692.00000,46.86492
2694.00000,54.79992
2696.00000,76.97073
2698.00000,118.38051
2700.00000,106.48786
2702.00000,47.64512
2704.00000,31.36257
2706.00000,95.76812
2708.00000,83.22036
2710.00000,58.98933
2712.00000,107.40282
2714.00000,140.55197
2716.00000,32.30778
2718.00000,105.65616
2720.00000,185.58723
2722.00000,69.29034
2724.00000,142.64508
2726.00000,155.33722
2728.00000,87.83747
2730.00000,95.96527
2732.00000,180.88080
2734.00000,141.03285
2736.00000,97.50143
2738.00000,132.69598
2740.00000,161.19344
2742.00000,112.76914
2744.00000,69.85036
2746.00000,110.01616
2748.00000,143.58598
2750.00000,66.69331
2752.00000,194.64641
2754.00000,255.69707
2756.00000,129.95406
2758.00000,78.61699
2760.00000,160.09241
2762.00000,153.32736
2764.00000,134.25105
2766.00000,193.36356
2768.00000,120.34843
2770.00000,14.18941
2772.00000,28.47735
2774.00000,120.54658
2776.00000,119.55191
2778.00000,58.67185
2780.00000,65.49540
2782.00000,75.24969
2784.00000,0.23304
2786.00000,-2.53920
2788.00000,126.45744
2790.00000,152.13544
2792.00000,53.52064
2794.00000,100.72288
2796.00000,113.15834
2798.00000,72.06339
2800.00000,22.27773
2802.00000,-1.16144
2804.00000,60.65414
2806.00000,123.64895
2808.00000,98.57121
2810.00000,40.82098
2812.00000,72.81571
2814.00000,35.08898
2816.00000,64.49422
2818.00000,164.45592
2820.00000,152.02591
2822.00000,128.01074
2824.00000,122.65330
2826.00000,98.42175
2828.00000,88.27917
2830.00000,183.90453
2832.00000,179.64444
2834.00000,169.03847
2836.00000,201.43393
2838.00000,166.86487
2840.00000,241.34509
2842.00000,246.68916
2844.00000,261.39227
2846.00000,412.14392
2848.00000,389.95535
2850.00000,429.12787
2852.00000,520.66632
2854.00000,548.18549
2856.00000,561.66339
2858.00000,528.26770
2860.00000,512.88190
2862.00000,529.25574
2864.00000,549.60217
2866.00000,618.71875
2868.00000,554.88727
2870.00000,537.06525
2872.00000,657.47522
2874.00000,600.61688
2876.00000,651.74835
2878.00000,649.45050
2880.00000,574.78339
2882.00000,670.27905
2884.00000,675.51074
2886.00000,621.62781
2888.00000,682.27545
2890.00000,788.25494
2892.00000,654.01862
2894.00000,734.56720
2896.00000,804.78247
2898.00000,682.69000
2900.00000,730.59692
2902.00000,859.36926
2904.00000,809.39240
2906.00000,785.60315
2908.00000,989.15106
2910.00000,907.03918
2912.00000,848.41217
2914.00000,993.28241
2916.00000,1059.70349
2918.00000,825.50616
2920.00000,965.86444
2922.00000,994.24164
2924.00000,846.00024
2926.00000,1006.43420
2928.00000,891.60431
2930.00000,826.32745
2932.00000,891.47906
2934.00000,854.10797
2936.00000,765.12878
2938.00000,801.68585
2940.00000,767.70709
2942.00000,615.63507
2944.00000,580.80475
2946.00000,551.29327
2948.00000,566.21118
2950.00000,504.40787
2952.00000,355.89978
2954.00000,489.63293
2956.00000,461.78003
2958.00000,281.34741
2960.00000,278.42599
2962.00000,461.42337
2964.00000,411.62717
2966.00000,304.02682
2968.00000,326.46420
2970.00000,369.40308
2972.00000,315.30743
2974.00000,180.90544
2976.00000,211.91177
2978.00000,342.64050
2980.00000,160.26001
2982.00000,223.51909
2984.00000,263.24704
2986.00000,83.99651
2988.00000,55.23985
2990.00000,205.16679
2992.00000,136.99590
2994.00000,-17.17722
2996.00000,49.90672
2998.00000,90.68105
3000.00000,88.43200
3002.00000,116.81834
3004.00000,156.92853
3006.00000,119.94281
3008.00000,67.83386
3010.00000,34.84792
3012.00000,51.10221
3014.00000,94.98907
3016.00000,80.91320
3018.00000,199.22804
3020.00000,192.68306
3022.00000,39.25620
3024.00000,216.78749
3026.00000,246.79088
3028.00000,176.67795
3030.00000,242.62521
3032.00000,381.71924
3034.00000,345.12488
3036.00000,405.66202
3038.00000,523.44873
3040.00000,482.85550
3042.00000,430.95532
3044.00000,602.78253
3046.00000,644.05682
3048.00000,561.14105
3050.00000,756.04126
3052.00000,725.52881
3054.00000,728.23236
3056.00000,903.37781
3058.00000,951.52850
3060.00000,722.25824
3062.00000,832.21875
3064.00000,986.40192
3066.00000,827.21387
3068.00000,700.62183
3070.00000,596.08984
3072.00000,659.48657
3074.00000,558.31720
3076.00000,154.16638
3078.00000,435.84885
3080.00000,391.79831
3082.00000,169.67648
3084.00000,306.72009
3086.00000,253.20917
3088.00000,308.69647
3090.00000,266.07977
3092.00000,170.57047
3094.00000,327.55505
3096.00000,227.97047
3098.00000,245.56302
3100.00000,370.96890
3102.00000,289.60834
3104.00000,198.30048
3106.00000,288.50552
3108.00000,323.37402
3110.00000,242.02150
3112.00000,302.06253
3114.00000,273.14990
3116.00000,208.90025
3118.00000,269.31885
3120.00000,358.05856
3122.00000,167.22913
3124.00000,198.10869
3126.00000,231.31633
3128.00000,38.11743
3130.00000,103.91405
3132.00000,344.12277
3134.00000,301.69843
3136.00000,102.96075
3138.00000,162.60634
3140.00000,81.11951
3142.00000,94.97198
3144.00000,97.01064
3146.00000,1.73921
3148.00000,219.46332
3150.00000,305.07635
3152.00000,198.58055
3154.00000,155.18314
3156.00000,279.02682
3158.00000,347.92435
3160.00000,273.77097
3162.00000,142.78664
3164.00000,87.07793
3166.00000,142.22351
3168.00000,239.50085
3170.00000,240.82138
3172.00000,147.40054
3174.00000,148.80696
3176.00000,290.29752
3178.00000,226.83403
3180.00000,159.51537
3182.00000,409.00833
3184.00000,367.60211
3186.00000,420.65338
3188.00000,265.27185
3190.00000,17.85860
3192.00000,625.70538
3194.00000,414.28104
3196.00000,87.85008
3198.00000,311.99628
3200.00000,338.18549
