300.00000,57.67952
302.00000,69.25000
304.00000,87.80531
306.00000,104.20970
308.00000,116.64274
310.00000,122.32852
312.00000,122.09001
314.00000,135.80304
316.00000,149.39925
318.00000,150.05609
320.00000,145.44608
322.00000,150.23796
324.00000,156.82603
326.00000,141.66139
328.00000,110.52261
330.00000,93.88911
332.00000,80.84718
334.00000,74.41374
336.00000,80.02109
338.00000,95.76718
340.00000,110.06248
342.00000,97.31769
344.00000,84.89993
346.00000,110.76546
348.00000,162.84798
350.00000,182.73235
352.00000,206.98001
354.00000,250.93855
356.00000,285.59625
358.00000,292.51096
360.00000,272.79260
362.00000,241.04828
364.00000,206.56960
366.00000,170.16438
368.00000,138.80518
370.00000,111.35020
372.00000,90.86177
374.00000,81.28122
376.00000,78.12685
378.00000,75.34153
380.00000,63.08220
382.00000,63.38931
384.00000,95.24308
386.00000,97.18897
388.00000,88.26936
390.00000,104.87868
392.00000,139.28795
394.00000,156.81091
396.00000,199.47316
398.00000,253.22794
400.00000,277.63931
402.00000,268.64471
404.00000,266.77908
406.00000,269.95193
408.00000,271.36191
410.00000,277.43283
412.00000,295.09811
414.00000,313.09259
416.00000,333.36829
418.00000,354.17261
420.00000,373.58075
422.00000,413.53342
424.00000,468.78683
426.00000,515.91187
428.00000,554.55371
430.00000,616.47205
432.00000,694.74329
434.00000,767.04248
436.00000,819.76776
438.00000,865.29987
440.00000,934.00134
442.00000,997.16650
444.00000,1011.91827
446.00000,985.38208
448.00000,970.93677
450.00000,955.82758
452.00000,930.47113
454.00000,883.25439
456.00000,814.11731
458.00000,757.87054
460.00000,692.64063
462.00000,614.48785
464.00000,532.10004
466.00000,443.58383
468.00000,369.93018
470.00000,307.84149
472.00000,242.47511
474.00000,181.05023
476.00000,154.75183
478.00000,119.83668
480.00000,91.13246
482.00000,87.29246
484.00000,69.59854
486.00000,47.11296
488.00000,43.03473
490.00000,55.31103
492.00000,58.14598
494.00000,40.16284
496.00000,33.60922
498.00000,40.17905
500.00000,41.11588
502.00000,33.10143
504.00000,26.10386
506.00000,27.62147
508.00000,40.09644
510.00000,59.50838
512.00000,73.72240
514.00000,69.49732
516.00000,63.07187
518.00000,69.08596
520.00000,79.00355
522.00000,93.17075
524.00000,93.67680
526.00000,91.27744
528.00000,106.99414
530.00000,114.61412
532.00000,87.12654
534.00000,71.23958
536.00000,88.10803
538.00000,92.24877
540.00000,103.69626
542.00000,113.07986
544.00000,106.48533
546.00000,90.30245
548.00000,83.42686
550.00000,89.68475
552.00000,96.07870
554.00000,95.11154
556.00000,93.03540
558.00000,89.64229
560.00000,90.16108
562.00000,100.82235
564.00000,113.81049
566.00000,108.76290
568.00000,106.03861
570.00000,125.91032
572.00000,163.45586
574.00000,193.63904
576.00000,202.69815
578.00000,204.61902
580.00000,218.10289
582.00000,248.94337
584.00000,285.11111
586.00000,305.39706
588.00000,329.29529
590.00000,372.02615
592.00000,423.43378
594.00000,494.70645
596.00000,576.79034
598.00000,637.20197
600.00000,663.84241
602.00000,693.58301
604.00000,734.60870
606.00000,741.97284
608.00000,729.87762
610.00000,759.34326
612.00000,771.84869
614.00000,772.34351
616.00000,779.98932
618.00000,786.60919
620.00000,765.61945
622.00000,706.59167
624.00000,614.24146
626.00000,511.74802
628.00000,419.49713
630.00000,326.85574
632.00000,279.02765
634.00000,264.86548
636.00000,231.43489
638.00000,176.72389
640.00000,158.11198
642.00000,187.98364
644.00000,214.81310
646.00000,183.70090
648.00000,122.30441
650.00000,78.68327
652.00000,53.89258
654.00000,33.76863
656.00000,33.12234
658.00000,40.00936
660.00000,49.32954
662.00000,49.83117
664.00000,35.61904
666.00000,39.17828
668.00000,52.16169
670.00000,42.92670
672.00000,28.82836
674.00000,66.91516
676.00000,73.29621
678.00000,57.54952
680.00000,61.68040
682.00000,73.49162
684.00000,52.26126
686.00000,40.01765
688.00000,43.97850
690.00000,47.55632
692.00000,56.78267
694.00000,43.30301
696.00000,34.71743
698.00000,42.81232
700.00000,49.34655
702.00000,71.07337
704.00000,87.79537
706.00000,92.18614
708.00000,95.93858
710.00000,101.44473
712.00000,87.42888
714.00000,77.24146
716.00000,69.84185
718.00000,45.12623
720.00000,38.06121
722.00000,40.60772
724.00000,40.06461
726.00000,34.65097
728.00000,34.55672
730.00000,63.12608
732.00000,60.99093
734.00000,35.62039
736.00000,47.84979
738.00000,57.97486
740.00000,66.74352
742.00000,75.84572
744.00000,69.49306
746.00000,41.39168
748.00000,34.71750
750.00000,33.16661
752.00000,21.86997
754.00000,18.76179
756.00000,35.50227
758.00000,50.91174
760.00000,60.52993
762.00000,66.24056
764.00000,59.39039
766.00000,46.25769
768.00000,38.43308
770.00000,40.36654
772.00000,50.67391
774.00000,69.57104
776.00000,87.76831
778.00000,92.13496
780.00000,81.95050
782.00000,74.88520
784.00000,85.26321
786.00000,86.81279
788.00000,79.71114
790.00000,84.35832
792.00000,86.04845
794.00000,89.32571
796.00000,147.78970
798.00000,242.49973
800.00000,272.85840
802.00000,265.53979
804.00000,205.55392
806.00000,128.43759
808.00000,98.20850
810.00000,92.87550
812.00000,66.91203
814.00000,56.64133
816.00000,86.80682
818.00000,111.85928
820.00000,123.65953
822.00000,148.82861
824.00000,161.09909
826.00000,141.16270
828.00000,153.12657
830.00000,137.84732
832.00000,97.65126
834.00000,82.19806
836.00000,92.37353
838.00000,58.27702
840.00000,44.99697
842.00000,68.88811
844.00000,77.30180
846.00000,68.32109
848.00000,71.80095
850.00000,62.19006
852.00000,39.08491
854.00000,42.04342
856.00000,32.76901
858.00000,41.53393
860.00000,60.13152
862.00000,51.75504
864.00000,33.57973
866.00000,26.17986
868.00000,29.15192
870.00000,32.89140
872.00000,32.06603
874.00000,26.84117
876.00000,28.25117
878.00000,27.52107
880.00000,24.68699
882.00000,45.51213
884.00000,42.25644
886.00000,35.84743
888.00000,50.71447
890.00000,58.95377
892.00000,43.81232
894.00000,51.01146
896.00000,75.67873
898.00000,88.60194
900.00000,109.39159
902.00000,130.83656
904.00000,120.83318
906.00000,99.21786
908.00000,123.23220
910.00000,166.40056
912.00000,162.89227
914.00000,152.27800
916.00000,168.28415
918.00000,137.96068
920.00000,137.18179
922.00000,134.97144
924.00000,102.44639
926.00000,84.63402
928.00000,90.17944
930.00000,85.62894
932.00000,78.99465
934.00000,83.64677
936.00000,71.67623
938.00000,63.91546
940.00000,72.32037
942.00000,83.59373
944.00000,92.90640
946.00000,131.40222
948.00000,139.79750
950.00000,129.38751
952.00000,136.97502
954.00000,134.24376
956.00000,130.41309
958.00000,108.52423
960.00000,91.88131
962.00000,111.75179
964.00000,100.96167
966.00000,82.78436
968.00000,74.38686
970.00000,71.24352
972.00000,76.95509
974.00000,84.97678
976.00000,93.17874
978.00000,93.46997
980.00000,91.28149
982.00000,123.05027
984.00000,139.84395
986.00000,145.37566
988.00000,174.86012
990.00000,223.10493
992.00000,279.48309
994.00000,361.85904
996.00000,485.77066
998.00000,637.90680
1000.00000,769.96185
1002.00000,797.85870
1004.00000,692.58844
1006.00000,518.51001
1008.00000,377.52216
1010.00000,275.79269
1012.00000,226.19438
1014.00000,217.36298
1016.00000,217.89200
1018.00000,225.01543
1020.00000,224.02635
1022.00000,223.25240
1024.00000,235.88139
1026.00000,256.59500
1028.00000,280.15619
1030.00000,292.15286
1032.00000,287.84125
1034.00000,261.50290
1036.00000,198.61935
1038.00000,166.37447
1040.00000,167.29973
1042.00000,153.97186
1044.00000,125.91389
1046.00000,159.59296
1048.00000,149.80704
1050.00000,95.02197
1052.00000,100.94088
1054.00000,134.59814
1056.00000,144.37592
1058.00000,159.28214
1060.00000,199.93846
1062.00000,232.17467
1064.00000,282.23462
1066.00000,325.12006
1068.00000,326.75525
1070.00000,294.00104
1072.00000,268.35822
1074.00000,245.49837
1076.00000,261.07391
1078.00000,335.01886
1080.00000,439.22406
1082.00000,587.66766
1084.00000,793.43335
1086.00000,948.89044
1088.00000,947.68707
1090.00000,862.46326
1092.00000,716.31647
1094.00000,556.08636
1096.00000,450.98685
1098.00000,417.73462
1100.00000,362.72156
1102.00000,308.16345
1104.00000,261.06122
1106.00000,216.56183
1108.00000,223.13371
1110.00000,204.98996
1112.00000,172.03670
1114.00000,174.55836
1116.00000,193.39861
1118.00000,154.75696
1120.00000,155.34422
1122.00000,168.29335
1124.00000,117.99811
1126.00000,104.41368
1128.00000,126.40435
1130.00000,123.59424
1132.00000,84.89901
1134.00000,59.25888
1136.00000,48.31109
1138.00000,47.67225
1140.00000,64.51161
1142.00000,86.90423
1144.00000,79.09075
1146.00000,87.97454
1148.00000,104.29757
1150.00000,129.74989
1152.00000,204.35535
1154.00000,306.31616
1156.00000,409.27222
1158.00000,462.73883
1160.00000,441.22806
1162.00000,392.04269
1164.00000,348.24829
1166.00000,324.63101
1168.00000,313.89212
1170.00000,308.30792
1172.00000,324.62817
1174.00000,300.90787
1176.00000,257.93338
1178.00000,248.74843
1180.00000,239.61902
1182.00000,213.65860
1184.00000,192.13977
1186.00000,186.46661
1188.00000,174.66002
1190.00000,139.98260
1192.00000,133.62338
1194.00000,151.03015
1196.00000,150.59042
1198.00000,137.69742
1200.00000,143.58997
1202.00000,128.02255
1204.00000,93.12560
1206.00000,87.16321
1208.00000,74.10609
1210.00000,80.64250
1212.00000,90.57429
1214.00000,68.57391
1216.00000,34.08983
1218.00000,22.34639
1220.00000,44.33468
1222.00000,59.08658
1224.00000,40.10010
1226.00000,57.24037
1228.00000,54.81061
1230.00000,40.36599
1232.00000,60.17658
1234.00000,94.96296
1236.00000,123.03479
1238.00000,205.09390
1240.00000,316.93188
1242.00000,380.45132
1244.00000,462.45676
1246.00000,544.92847
1248.00000,597.97223
1250.00000,665.71106
1252.00000,832.59521
1254.00000,1049.11926
1256.00000,1328.52893
1258.00000,1636.97559
1260.00000,1908.00476
1262.00000,2147.76831
1264.00000,2132.41382
1266.00000,1847.84131
1268.00000,1446.43738
1270.00000,1030.43640
1272.00000,679.64417
1274.00000,439.82581
1276.00000,282.07648
1278.00000,165.26709
1280.00000,121.18177
1282.00000,77.99025
1284.00000,37.37638
1286.00000,63.98580
1288.00000,164.22542
1290.00000,228.80806
1292.00000,276.00391
1294.00000,347.36313
1296.00000,420.54221
1298.00000,445.86536
1300.00000,438.22198
1302.00000,406.70822
1304.00000,378.74808
1306.00000,404.64880
1308.00000,463.85919
1310.00000,558.87671
1312.00000,735.72498
1314.00000,1025.59570
1316.00000,1397.12231
1318.00000,1881.37244
1320.00000,2442.83105
1322.00000,2980.81079
1324.00000,3399.04517
1326.00000,3658.42163
1328.00000,3780.52490
1330.00000,3773.75977
1332.00000,3640.79980
1334.00000,3416.31689
1336.00000,3068.53198
1338.00000,2651.53931
1340.00000,2249.23999
1342.00000,1909.09949
1344.00000,1698.23840
1346.00000,1622.00623
1348.00000,1685.86304
1350.00000,1819.24023
1352.00000,1810.11340
1354.00000,1636.72107
1356.00000,1328.08447
1358.00000,1024.65515
1360.00000,870.21503
1362.00000,670.40729
1364.00000,502.89008
1366.00000,372.54163
1368.00000,219.87109
1370.00000,155.30663
1372.00000,126.69004
1374.00000,88.77383
1376.00000,60.08086
1378.00000,61.71210
1380.00000,40.50940
1382.00000,52.42794
1384.00000,62.83942
1386.00000,49.19232
1388.00000,135.49162
1390.00000,153.43167
1392.00000,209.13039
1394.00000,366.57370
1396.00000,476.36691
1398.00000,592.28845
1400.00000,703.67621
1402.00000,776.26801
1404.00000,799.75116
1406.00000,765.22864
1408.00000,615.27393
1410.00000,476.64276
1412.00000,391.40335
1414.00000,269.10852
1416.00000,229.30247
1418.00000,216.44739
1420.00000,193.97745
1422.00000,174.74673
1424.00000,137.88661
1426.00000,117.47723
1428.00000,100.77351
1430.00000,89.68484
1432.00000,117.26162
1434.00000,159.98900
1436.00000,204.63805
1438.00000,244.39041
1440.00000,248.77151
1442.00000,193.15608
1444.00000,191.07262
1446.00000,194.55516
1448.00000,175.60156
1450.00000,185.23628
1452.00000,158.86652
1454.00000,161.37285
1456.00000,167.95621
1458.00000,134.18144
1460.00000,125.12223
1462.00000,97.57658
1464.00000,69.72697
1466.00000,59.41310
1468.00000,44.51226
1470.00000,31.50355
1472.00000,41.34997
1474.00000,44.82268
1476.00000,38.77862
1478.00000,79.63011
1480.00000,94.47189
1482.00000,150.22922
1484.00000,258.70587
1486.00000,336.01242
1488.00000,409.07205
1490.00000,446.49945
1492.00000,471.73364
1494.00000,515.87390
1496.00000,550.53839
1498.00000,598.97656
1500.00000,639.28265
1502.00000,681.37286
1504.00000,738.41809
1506.00000,730.16425
1508.00000,746.30933
1510.00000,758.97009
1512.00000,700.30115
1514.00000,612.58038
1516.00000,487.93317
1518.00000,370.26187
1520.00000,267.71881
1522.00000,165.74780
1524.00000,119.17768
1526.00000,64.17677
1528.00000,31.53377
1530.00000,44.33531
1532.00000,31.06259
1534.00000,60.95839
1536.00000,46.34712
1538.00000,27.44771
1540.00000,108.31633
1542.00000,132.09480
1544.00000,162.38182
1546.00000,172.83597
1548.00000,151.10045
1550.00000,179.90233
1552.00000,122.42733
1554.00000,122.75654
1556.00000,152.51761
1558.00000,60.94124
1560.00000,30.80710
1562.00000,37.94821
1564.00000,63.45089
1566.00000,113.21240
1568.00000,166.74454
1570.00000,241.86003
1572.00000,359.65079
1574.00000,476.24753
1576.00000,567.10217
1578.00000,724.67017
1580.00000,889.18732
1582.00000,1132.67639
1584.00000,1470.65100
1586.00000,1777.10779
1588.00000,2147.90723
1590.00000,2442.86035
1592.00000,2598.30103
1594.00000,2659.20654
1596.00000,2555.61279
1598.00000,2338.82227
1600.00000,2168.32104
1602.00000,1979.72668
1604.00000,1599.07861
1606.00000,1413.30310
1608.00000,1124.37708
1610.00000,790.21149
1612.00000,694.43945
1614.00000,500.37067
1616.00000,335.50620
1618.00000,271.89908
1620.00000,224.33955
1622.00000,145.64677
1624.00000,160.59743
1626.00000,134.13991
1628.00000,67.14301
1630.00000,80.84557
1632.00000,116.73849
1634.00000,150.40247
1636.00000,187.13272
1638.00000,189.87051
1640.00000,122.66470
1642.00000,98.21048
1644.00000,89.64349
1646.00000,103.21928
1648.00000,139.58899
1650.00000,97.12678
1652.00000,90.60107
1654.00000,104.74081
1656.00000,90.98540
1658.00000,109.09330
1660.00000,217.30199
1662.00000,250.21281
1664.00000,272.81342
1666.00000,369.92044
1668.00000,314.40332
1670.00000,279.49527
1672.00000,227.94426
1674.00000,127.51529
1676.00000,98.44682
1678.00000,92.41933
1680.00000,85.14468
1682.00000,75.79889
1684.00000,61.41758
1686.00000,41.16387
1688.00000,45.10374
1690.00000,35.00655
1692.00000,49.50731
1694.00000,122.11744
1696.00000,30.29985
1698.00000,44.74546
1700.00000,100.67970
1702.00000,29.02354
1704.00000,69.39306
1706.00000,67.92812
1708.00000,47.22752
1710.00000,80.57105
1712.00000,112.51131
1714.00000,84.87191
1716.00000,112.75243
1718.00000,165.45049
1720.00000,155.12477
1722.00000,149.73854
1724.00000,176.09492
1726.00000,216.72713
1728.00000,182.93839
1730.00000,92.96960
1732.00000,218.07321
1734.00000,158.47638
1736.00000,92.40417
1738.00000,210.61140
1740.00000,44.06818
1742.00000,56.83971
1744.00000,95.12691
1746.00000,39.28860
1748.00000,92.46871
1750.00000,94.59430
1752.00000,74.58237
1754.00000,62.99296
1756.00000,49.29691
1758.00000,54.18353
1760.00000,93.55740
1762.00000,81.08972
1764.00000,41.02830
1766.00000,77.13469
1768.00000,104.08692
1770.00000,72.94415
1772.00000,68.34306
1774.00000,87.56189
1776.00000,14.29147
1778.00000,107.37291
1780.00000,118.70401
1782.00000,23.03988
1784.00000,77.94337
1786.00000,88.56138
1788.00000,121.71969
1790.00000,146.56847
1792.00000,105.92419
1794.00000,93.87719
1796.00000,136.93840
1798.00000,133.08272
1800.00000,83.76575
1802.00000,111.01571
1804.00000,206.30064
1806.00000,128.10539
1808.00000,100.31643
1810.00000,175.35448
1812.00000,3.56587
1814.00000,174.70569
1816.00000,218.23770
1818.00000,72.47370
1820.00000,149.43277
1822.00000,39.29776
1824.00000,70.15100
1826.00000,111.75941
1828.00000,41.57782
1830.00000,151.40063
1832.00000,68.42690
1834.00000,60.61472
1836.00000,128.70009
1838.00000,30.04394
1840.00000,83.99249
1842.00000,111.50993
1844.00000,75.94608
1846.00000,73.07938
1848.00000,94.39724
1850.00000,106.25544
1852.00000,109.93628
1854.00000,103.64039
1856.00000,100.89236
1858.00000,147.81606
1860.00000,152.87112
1862.00000,65.68037
1864.00000,47.69732
1866.00000,225.45853
1868.00000,147.35670
1870.00000,91.01594
1872.00000,140.90904
1874.00000,96.67387
1876.00000,106.01890
1878.00000,108.36720
1880.00000,87.16103
1882.00000,75.82778
1884.00000,84.94099
1886.00000,123.29275
1888.00000,132.22186
1890.00000,109.79982
1892.00000,88.26766
1894.00000,62.00270
1896.00000,144.85069
1898.00000,147.38838
1900.00000,75.62719
1902.00000,172.73357
1904.00000,97.18330
1906.00000,172.79201
1908.00000,212.79549
1910.00000,6.86641
1912.00000,224.41620
1914.00000,251.60460
1916.00000,190.25996
1918.00000,252.28931
1920.00000,161.59770
1922.00000,55.13522
1924.00000,157.05679
1926.00000,259.16351
1928.00000,136.49516
1930.00000,84.93540
1932.00000,69.15644
1934.00000,132.20641
1936.00000,168.97267
1938.00000,39.94307
1940.00000,137.07375
1942.00000,102.63944
1944.00000,49.71500
1946.00000,196.90283
1948.00000,79.40299
1950.00000,82.52344
1952.00000,178.93733
1954.00000,195.26230
1956.00000,166.85214
1958.00000,76.89595
1960.00000,128.78548
1962.00000,178.44830
1964.00000,76.48421
1966.00000,113.26456
1968.00000,141.41893
1970.00000,156.18250
1972.00000,184.13547
1974.00000,159.37677
1976.00000,106.27629
1978.00000,117.29410
1980.00000,145.56331
1982.00000,133.80446
1984.00000,150.44933
1986.00000,85.46703
1988.00000,39.27342
1990.00000,78.47926
1992.00000,112.08203
1994.00000,116.00600
1996.00000,63.39399
1998.00000,55.02769
2000.00000,68.32299
2002.00000,71.81136
2004.00000,64.49432
2006.00000,63.37715
2008.00000,75.32700
2010.00000,87.16920
2012.00000,87.03769
2014.00000,77.19788
2016.00000,74.96001
2018.00000,92.13354
2020.00000,81.27232
2022.00000,63.70635
2024.00000,81.16792
2026.00000,100.86393
2028.00000,87.55470
2030.00000,74.60237
2032.00000,86.92130
2034.00000,99.98029
2036.00000,97.58856
2038.00000,79.07817
2040.00000,67.43489
2042.00000,76.25932
2044.00000,83.96640
2046.00000,102.62470
2048.00000,100.37779
2050.00000,70.11900
2052.00000,67.69720
2054.00000,99.92866
2056.00000,87.14507
2058.00000,52.70129
2060.00000,70.69366
2062.00000,66.68568
2064.00000,37.81422
2066.00000,37.18310
2068.00000,62.28841
2070.00000,46.02943
2072.00000,59.97450
2074.00000,76.46854
2076.00000,70.18672
2078.00000,72.14304
2080.00000,75.21490
2082.00000,84.29477
2084.00000,82.51868
2086.00000,67.34795
2088.00000,78.61906
2090.00000,87.42067
2092.00000,98.95490
2094.00000,102.84512
2096.00000,77.03152
2098.00000,95.84729
2100.00000,99.94427
2102.00000,88.07304
2104.00000,107.48382
2106.00000,106.31252
2108.00000,93.49828
2110.00000,94.68378
2112.00000,104.17839
2114.00000,92.79167
2116.00000,79.56658
2118.00000,81.67466
2120.00000,96.79764
2122.00000,105.48724
2124.00000,90.25378
2126.00000,78.04073
2128.00000,93.20552
2130.00000,114.03947
2132.00000,95.78672
2134.00000,89.30767
2136.00000,88.44421
2138.00000,98.37643
2140.00000,131.79739
2142.00000,97.88823
2144.00000,90.77528
2146.00000,122.86259
2148.00000,113.61140
2150.00000,76.07069
2152.00000,94.70619
2154.00000,102.37985
2156.00000,65.59969
2158.00000,78.98190
2160.00000,99.18546
2162.00000,90.46794
2164.00000,87.82222
2166.00000,114.84566
2168.00000,93.78657
2170.00000,77.65711
2172.00000,98.62062
2174.00000,112.70036
2176.00000,73.89609
2178.00000,65.76089
2180.00000,82.15500
2182.00000,85.79688
2184.00000,80.84449
2186.00000,89.41824
2188.00000,90.69219
2190.00000,80.78976
2192.00000,76.83227
2194.00000,80.56225
2196.00000,71.39108
2198.00000,63.92318
2200.00000,66.95755
2202.00000,58.04562
2204.00000,34.07802
2206.00000,46.07922
2208.00000,74.59162
2210.00000,70.16803
2212.00000,69.24352
2214.00000,61.04447
2216.00000,45.29909
2218.00000,41.07401
2220.00000,56.51236
2222.00000,63.70500
2224.00000,68.31685
2226.00000,81.37286
2228.00000,90.24023
2230.00000,75.15115
2232.00000,82.15746
2234.00000,81.90094
2236.00000,61.93279
2238.00000,101.34740
2240.00000,120.37844
2242.00000,92.75970
2244.00000,76.77965
2246.00000,109.03394
2248.00000,97.18524
2250.00000,82.87729
2252.00000,71.83859
2254.00000,60.85980
2256.00000,116.30384
2258.00000,98.96510
2260.00000,51.72967
2262.00000,72.58978
2264.00000,113.56704
2266.00000,73.53078
2268.00000,53.16255
2270.00000,87.56093
2272.00000,96.87746
2274.00000,79.19812
2276.00000,73.81654
2278.00000,64.37439
2280.00000,40.96655
2282.00000,44.67971
2284.00000,43.57144
2286.00000,50.93336
2288.00000,75.62551
2290.00000,81.91468
2292.00000,40.33131
2294.00000,35.65867
2296.00000,67.07793
2298.00000,68.91026
2300.00000,53.12770
2302.00000,96.21295
2304.00000,104.07828
2306.00000,63.06990
2308.00000,91.61997
2310.00000,83.22221
2312.00000,45.28923
2314.00000,48.74789
2316.00000,93.77432
2318.00000,78.43810
2320.00000,40.33853
2322.00000,21.28655
2324.00000,20.03600
2326.00000,23.70790
2328.00000,49.33223
2330.00000,55.25636
2332.00000,39.13941
2334.00000,41.14748
2336.00000,47.82188
2338.00000,66.12048
2340.00000,63.09342
2342.00000,45.76691
2344.00000,81.43683
2346.00000,56.57151
2348.00000,30.12819
2350.00000,55.56050
2352.00000,65.00278
2354.00000,41.83974
2356.00000,50.13942
2358.00000,47.33596
2360.00000,8.21704
2362.00000,62.86515
2364.00000,71.77046
2366.00000,59.10426
2368.00000,74.43755
2370.00000,59.87312
2372.00000,71.67431
2374.00000,62.90873
2376.00000,49.25689
2378.00000,80.72125
2380.00000,76.99252
2382.00000,58.39033
2384.00000,43.89981
2386.00000,49.53370
2388.00000,81.92117
2390.00000,35.31026
2392.00000,-0.32309
2394.00000,24.17153
2396.00000,27.94428
2398.00000,6.41112
2400.00000,0.91893
2402.00000,12.94898
2404.00000,21.26897
2406.00000,28.57263
2408.00000,23.29702
2410.00000,40.53330
2412.00000,62.22685
2414.00000,43.21470
2416.00000,88.26359
2418.00000,79.20853
2420.00000,32.96300
2422.00000,60.42488
2424.00000,74.86549
2426.00000,61.35616
2428.00000,49.18188
2430.00000,62.11972
2432.00000,82.76295
2434.00000,52.68253
2436.00000,24.53960
2438.00000,45.07672
2440.00000,81.54810
2442.00000,75.88015
2444.00000,45.30444
2446.00000,48.04848
2448.00000,89.72829
2450.00000,97.76054
2452.00000,75.28843
2454.00000,80.42853
2456.00000,97.84490
2458.00000,72.81503
2460.00000,88.57458
2462.00000,111.65727
2464.00000,117.62787
2466.00000,113.07057
2468.00000,89.70863
2470.00000,106.34378
2472.00000,95.97875
2474.00000,58.20515
2476.00000,103.19994
2478.00000,116.39977
2480.00000,72.33749
2482.00000,59.36465
2484.00000,108.56919
2486.00000,80.34132
2488.00000,57.73465
2490.00000,75.33847
2492.00000,90.60440
2494.00000,82.64429
2496.00000,64.52755
2498.00000,23.39207
2500.00000,27.07952
2502.00000,101.55778
2504.00000,27.92605
2506.00000,19.00172
2508.00000,81.01913
2510.00000,54.21526
2512.00000,4.63345
2514.00000,68.99211
2516.00000,99.43633
2518.00000,35.83581
2520.00000,41.96835
2522.00000,68.51588
2524.00000,50.81007
2526.00000,36.01250
2528.00000,76.97063
2530.00000,85.73350
2532.00000,49.35839
2534.00000,33.45576
2536.00000,46.93126
2538.00000,24.31102
2540.00000,35.01098
2542.00000,83.04050
2544.00000,91.15305
2546.00000,24.08437
2548.00000,-4.04907
2550.00000,17.23170
2552.00000,39.40183
2554.00000,30.44130
2556.00000,13.42432
2558.00000,32.64623
2560.00000,45.89869
2562.00000,26.87942
2564.00000,18.26077
2566.00000,39.88280
2568.00000,17.65139
2570.00000,9.72892
2572.00000,81.83659
2574.00000,101.74144
2576.00000,54.17715
2578.00000,49.65130
2580.00000,102.37431
2582.00000,92.46302
2584.00000,60.49284
2586.00000,74.98031
2588.00000,107.93247
2590.00000,84.99524
2592.00000,39.91751
2594.00000,97.81348
2596.00000,116.99299
2598.00000,30.41348
2600.00000,62.57822
2602.00000,118.03023
2604.00000,85.09430
2606.00000,44.64446
2608.00000,102.98945
2610.00000,78.66291
2612.00000,37.42814
2614.00000,43.72454
2616.00000,52.65848
2618.00000,25.26286
2620.00000,95.85014
2622.00000,107.90598
2624.00000,14.68181
2626.00000,21.97698
2628.00000,69.09795
2630.00000,50.60395
2632.00000,34.32105
2634.00000,84.61255
2636.00000,48.41752
2638.00000,47.80650
2640.00000,89.95910
2642.00000,84.59935
2644.00000,28.69765
2646.00000,40.63762
2648.00000,91.57336
2650.00000,89.75164
2652.00000,46.62587
2654.00000,97.34354
2656.00000,81.63869
2658.00000,19.13617
2660.00000,19.03956
2662.00000,31.86017
2664.00000,51.10425
2666.00000,26.44352
2668.00000,17.88337
2670.00000,102.30761
2672.00000,72.16756
2674.00000,12.47196
2676.00000,16.52407
2678.00000,37.94252
2680.00000,5.20920
2682.00000,28.54162
2684.00000,53.06733
2686.00000,22.26719
2688.00000,23.86745
2690.00000,84.48459
2692.00000,84.63908
2694.00000,34.10689
2696.00000,46.12510
2698.00000,80.19236
2700.00000,31.20177
2702.00000,14.96213
2704.00000,79.35519
2706.00000,37.79771
2708.00000,-8.32419
2710.00000,68.98283
2712.00000,132.28978
2714.00000,20.43651
2716.00000,32.39483
2718.00000,107.53236
2720.00000,90.28206
2722.00000,18.40273
2724.00000,69.65170
2726.00000,54.27676
2728.00000,18.39781
2730.00000,53.97943
2732.00000,74.83441
2734.00000,4.89449
2736.00000,66.67572
2738.00000,125.71429
2740.00000,12.46956
2742.00000,87.99658
2744.00000,57.37979
2746.00000,0.63157
2748.00000,79.59212
2750.00000,110.88998
2752.00000,36.95347
2754.00000,1.36784
2756.00000,31.91722
2758.00000,34.09685
2760.00000,43.56576
2762.00000,33.98110
2764.00000,15.65022
2766.00000,15.47321
2768.00000,26.00690
2770.00000,58.83891
2772.00000,44.55136
2774.00000,4.67144
2776.00000,31.11259
2778.00000,36.34657
2780.00000,8.10396
2782.00000,7.24696
2784.00000,35.13694
2786.00000,2.07089
2788.00000,33.62553
2790.00000,54.36798
2792.00000,6.57309
2794.00000,-1.11863
2796.00000,6.29132
2798.00000,6.12459
2800.00000,21.87441
2802.00000,52.03380
2804.00000,19.65924
2806.00000,1.79629
2808.00000,9.85512
2810.00000,2.17864
2812.00000,-6.33340
2814.00000,47.71276
2816.00000,56.68274
2818.00000,11.07275
2820.00000,30.30030
2822.00000,81.23247
2824.00000,91.28356
2826.00000,90.85967
2828.00000,98.89153
2830.00000,50.94498
2832.00000,105.30780
2834.00000,160.64352
2836.00000,121.57356
2838.00000,92.80399
2840.00000,127.97890
2842.00000,165.99358
2844.00000,199.84425
2846.00000,242.82140
2848.00000,234.54655
2850.00000,271.95544
2852.00000,322.50992
2854.00000,327.36441
2856.00000,331.43765
2858.00000,353.72678
2860.00000,403.71481
2862.00000,452.50079
2864.00000,449.29507
2866.00000,394.24286
2868.00000,390.40259
2870.00000,510.14850
2872.00000,598.86414
2874.00000,445.59808
2876.00000,498.92566
2878.00000,509.65509
2880.00000,408.95062
2882.00000,504.25208
2884.00000,461.39233
2886.00000,438.27982
2888.00000,480.86536
2890.00000,469.95242
2892.00000,454.16968
2894.00000,454.90118
2896.00000,536.77826
2898.00000,609.29211
2900.00000,514.32239
2902.00000,509.62607
2904.00000,594.54926
2906.00000,608.06525
2908.00000,558.47327
2910.00000,689.52448
2912.00000,692.74719
2914.00000,593.40778
2916.00000,610.26965
2918.00000,696.23059
2920.00000,659.07251
2922.00000,640.74951
2924.00000,674.57465
2926.00000,619.27606
2928.00000,586.24011
2930.00000,623.22113
2932.00000,589.65826
2934.00000,500.91879
2936.00000,617.59424
2938.00000,560.79498
2940.00000,448.35687
2942.00000,448.24023
2944.00000,414.37964
2946.00000,343.00113
2948.00000,316.22446
2950.00000,326.21143
2952.00000,339.52368
2954.00000,385.87262
2956.00000,257.80795
2958.00000,240.44768
2960.00000,371.62967
2962.00000,222.99307
2964.00000,226.00920
2966.00000,174.35391
2968.00000,105.38174
2970.00000,264.86237
2972.00000,227.85802
2974.00000,162.73926
2976.00000,225.44568
2978.00000,250.16435
2980.00000,63.87056
2982.00000,160.73549
2984.00000,154.38892
2986.00000,1.49233
2988.00000,143.56808
2990.00000,50.36763
2992.00000,17.19622
2994.00000,116.86225
2996.00000,91.61438
2998.00000,-4.91166
3000.00000,119.58000
3002.00000,145.52136
3004.00000,1.75720
3006.00000,111.33797
3008.00000,134.66138
3010.00000,44.55983
3012.00000,10.45528
3014.00000,92.46108
3016.00000,143.74905
3018.00000,97.40335
3020.00000,56.78304
3022.00000,65.13690
3024.00000,54.31559
3026.00000,214.91721
3028.00000,254.20787
3030.00000,176.90884
3032.00000,297.70200
3034.00000,368.65674
3036.00000,266.51266
3038.00000,321.50638
3040.00000,519.24286
3042.00000,266.45569
3044.00000,395.19409
3046.00000,587.15710
3048.00000,518.65106
3050.00000,575.26849
3052.00000,571.04034
3054.00000,581.64093
3056.00000,681.01416
3058.00000,753.27356
3060.00000,669.82916
3062.00000,711.73962
3064.00000,691.45142
3066.00000,518.00208
3068.00000,537.23865
3070.00000,589.24677
3072.00000,401.52615
3074.00000,240.02455
3076.00000,437.63342
3078.00000,471.60706
3080.00000,274.62772
3082.00000,243.60388
3084.00000,372.34152
3086.00000,169.58122
3088.00000,366.23798
3090.00000,308.80756
3092.00000,7.13976
3094.00000,274.61270
3096.00000,178.74547
3098.00000,196.67101
3100.00000,323.30405
3102.00000,175.41319
3104.00000,146.04160
3106.00000,318.53903
3108.00000,339.49030
3110.00000,163.48875
3112.00000,167.59431
3114.00000,204.29085
3116.00000,241.82932
3118.00000,270.46451
3120.00000,258.19116
3122.00000,235.91960
3124.00000,187.59445
3126.00000,131.62425
3128.00000,133.52275
3130.00000,208.84044
3132.00000,191.06131
3134.00000,159.07225
3136.00000,164.80222
3138.00000,147.92468
3140.00000,155.31915
3142.00000,181.70859
3144.00000,237.62283
3146.00000,257.67291
3148.00000,146.64667
3150.00000,230.40846
3152.00000,226.41096
3154.00000,121.14578
3156.00000,310.04816
3158.00000,367.91391
3160.00000,238.76125
3162.00000,163.46515
3164.00000,290.49237
3166.00000,400.49814
3168.00000,147.35127
3170.00000,41.96651
3172.00000,263.16507
3174.00000,205.16910
3176.00000,263.83768
3178.00000,443.95984
3180.00000,373.87909
3182.00000,73.78866
3184.00000,283.38922
3186.00000,328.48303
3188.00000,162.98915
3190.00000,168.81642
3192.00000,192.45871
3194.00000,77.13427
3196.00000,164.28258
3198.00000,338.19897
3200.00000,157.63181
