300.00000,32.42658
302.00000,27.28410
304.00000,21.52614
306.00000,32.12304
308.00000,60.74763
310.00000,85.63800
312.00000,81.34752
314.00000,62.07922
316.00000,61.47051
318.00000,80.93479
320.00000,90.56419
322.00000,73.37457
324.00000,59.43139
326.00000,51.17295
328.00000,43.73359
330.00000,46.06768
332.00000,53.26102
334.00000,48.80526
336.00000,42.42001
338.00000,43.58871
340.00000,32.60085
342.00000,34.83069
344.00000,39.63400
346.00000,36.02891
348.00000,39.57915
350.00000,53.40574
352.00000,73.77838
354.00000,97.91070
356.00000,117.04302
358.00000,114.98602
360.00000,99.39056
362.00000,90.79457
364.00000,85.90762
366.00000,66.26107
368.00000,49.10247
370.00000,33.49178
372.00000,23.75432
374.00000,28.28120
376.00000,40.60130
378.00000,42.96461
380.00000,36.02500
382.00000,31.17750
384.00000,32.67897
386.00000,31.24299
388.00000,29.84073
390.00000,29.64193
392.00000,35.39852
394.00000,56.75872
396.00000,76.10658
398.00000,110.68961
400.00000,160.34811
402.00000,194.93959
404.00000,214.98239
406.00000,236.26277
408.00000,265.53284
410.00000,302.09769
412.00000,346.80276
414.00000,397.68948
416.00000,472.87872
418.00000,573.74786
420.00000,676.14355
422.00000,766.07843
424.00000,846.08887
426.00000,944.35925
428.00000,1077.87231
430.00000,1225.20435
432.00000,1368.79004
434.00000,1498.14929
436.00000,1627.86133
438.00000,1770.95850
440.00000,1893.92053
442.00000,1995.06604
444.00000,2061.62524
446.00000,2082.48120
448.00000,2071.55786
450.00000,2034.47693
452.00000,1959.40186
454.00000,1836.25879
456.00000,1679.07837
458.00000,1526.40820
460.00000,1382.01624
462.00000,1231.82434
464.00000,1072.60266
466.00000,918.70892
468.00000,775.33502
470.00000,662.42401
472.00000,568.10443
474.00000,465.25922
476.00000,374.80875
478.00000,311.43665
480.00000,262.02072
482.00000,210.28352
484.00000,165.28232
486.00000,150.69408
488.00000,139.79807
490.00000,120.21806
492.00000,108.61115
494.00000,102.76925
496.00000,87.92259
498.00000,62.51623
500.00000,42.65192
502.00000,43.13998
504.00000,48.51553
506.00000,52.39634
508.00000,51.40501
510.00000,47.95200
512.00000,54.31839
514.00000,48.92270
516.00000,29.22632
518.00000,15.61217
520.00000,22.09696
522.00000,30.28666
524.00000,31.24318
526.00000,24.22587
528.00000,15.41865
530.00000,18.05619
532.00000,29.04064
534.00000,30.78884
536.00000,16.43310
538.00000,1.88506
540.00000,3.59637
542.00000,20.36486
544.00000,29.90604
546.00000,22.81693
548.00000,26.93694
550.00000,33.33453
552.00000,50.45684
554.00000,73.49936
556.00000,79.91502
558.00000,98.26340
560.00000,119.22104
562.00000,139.60158
564.00000,163.18950
566.00000,174.61017
568.00000,191.45786
570.00000,224.20201
572.00000,270.11313
574.00000,324.18149
576.00000,383.49292
578.00000,429.38834
580.00000,466.66672
582.00000,525.63202
584.00000,619.82306
586.00000,700.90930
588.00000,769.46100
590.00000,848.23340
592.00000,942.24426
594.00000,1054.89587
596.00000,1169.95447
598.00000,1283.17102
600.00000,1397.15210
602.00000,1499.41406
604.00000,1580.94287
606.00000,1629.55908
608.00000,1643.75037
610.00000,1642.96887
612.00000,1651.28027
614.00000,1640.34497
616.00000,1589.67188
618.00000,1514.08240
620.00000,1434.00818
622.00000,1316.79785
624.00000,1177.89270
626.00000,1036.94788
628.00000,897.34735
630.00000,793.62915
632.00000,695.27997
634.00000,586.89563
636.00000,496.76199
638.00000,452.68942
640.00000,417.46442
642.00000,387.32590
644.00000,366.40945
646.00000,336.31525
648.00000,278.93967
650.00000,205.12914
652.00000,163.53885
654.00000,170.90338
656.00000,169.14026
658.00000,139.83812
660.00000,114.78223
662.00000,109.48724
664.00000,104.13059
666.00000,92.35056
668.00000,78.19804
670.00000,65.14931
672.00000,62.21717
674.00000,78.39025
676.00000,83.42679
678.00000,78.64396
680.00000,72.28831
682.00000,55.11398
684.00000,21.41825
686.00000,13.26245
688.00000,20.89147
690.00000,15.14855
692.00000,14.66377
694.00000,36.66692
696.00000,37.33897
698.00000,14.79055
700.00000,16.26746
702.00000,31.53521
704.00000,41.14760
706.00000,38.21061
708.00000,36.32182
710.00000,50.19588
712.00000,48.38529
714.00000,30.65934
716.00000,18.87961
718.00000,23.54483
720.00000,29.94313
722.00000,39.76219
724.00000,42.03565
726.00000,28.56605
728.00000,14.65070
730.00000,14.87888
732.00000,27.19202
734.00000,39.17775
736.00000,41.75371
738.00000,39.99319
740.00000,45.75437
742.00000,55.87882
744.00000,51.28912
746.00000,24.95522
748.00000,18.53224
750.00000,17.39982
752.00000,30.44543
754.00000,59.45119
756.00000,23.69170
758.00000,5.13288
760.00000,15.32500
762.00000,22.08297
764.00000,32.60771
766.00000,25.48634
768.00000,34.77559
770.00000,36.65721
772.00000,7.42152
774.00000,43.78364
776.00000,75.17133
778.00000,69.02487
780.00000,64.27425
782.00000,86.06311
784.00000,84.46703
786.00000,86.72107
788.00000,87.91826
790.00000,60.06637
792.00000,51.22897
794.00000,77.02699
796.00000,108.56549
798.00000,128.01920
800.00000,147.59915
802.00000,150.05359
804.00000,133.26744
806.00000,106.34767
808.00000,78.15540
810.00000,56.03765
812.00000,56.17067
814.00000,61.97588
816.00000,64.81240
818.00000,82.60023
820.00000,103.04498
822.00000,115.96132
824.00000,119.39952
826.00000,120.44469
828.00000,128.62685
830.00000,129.22354
832.00000,111.60870
834.00000,99.27645
836.00000,116.18631
838.00000,108.56454
840.00000,98.08001
842.00000,94.69139
844.00000,87.97559
846.00000,94.18265
848.00000,94.71293
850.00000,92.26686
852.00000,85.48515
854.00000,64.04718
856.00000,59.18212
858.00000,69.22544
860.00000,67.94701
862.00000,42.33107
864.00000,20.60598
866.00000,42.81012
868.00000,56.06618
870.00000,36.18811
872.00000,33.76361
874.00000,39.57772
876.00000,37.04441
878.00000,33.33528
880.00000,33.90130
882.00000,19.71771
884.00000,6.30072
886.00000,0.94280
888.00000,4.61716
890.00000,17.95076
892.00000,31.39823
894.00000,36.84966
896.00000,35.46527
898.00000,32.93170
900.00000,34.45449
902.00000,51.43117
904.00000,62.26936
906.00000,53.87315
908.00000,48.59579
910.00000,68.72153
912.00000,75.61974
914.00000,70.25248
916.00000,66.87664
918.00000,42.06450
920.00000,31.26679
922.00000,42.24883
924.00000,43.26032
926.00000,20.40055
928.00000,26.89506
930.00000,22.86406
932.00000,12.64010
934.00000,17.35916
936.00000,5.56997
938.00000,-0.51133
940.00000,1.46428
942.00000,7.21806
944.00000,13.04698
946.00000,2.54628
948.00000,14.00396
950.00000,27.00032
952.00000,16.77510
954.00000,19.97645
956.00000,11.60948
958.00000,4.46682
960.00000,8.32638
962.00000,7.70220
964.00000,1.70994
966.00000,1.75918
968.00000,18.10513
970.00000,35.01203
972.00000,21.23141
974.00000,4.27573
976.00000,5.62130
978.00000,31.54277
980.00000,56.08041
982.00000,30.75768
984.00000,60.47060
986.00000,107.60011
988.00000,115.21112
990.00000,158.43051
992.00000,204.80171
994.00000,285.61215
996.00000,413.78748
998.00000,548.18182
1000.00000,649.60706
1002.00000,633.36139
1004.00000,508.46280
1006.00000,351.77737
1008.00000,221.04575
1010.00000,139.47185
1012.00000,103.27778
1014.00000,89.58675
1016.00000,80.05479
1018.00000,88.09562
1020.00000,136.00388
1022.00000,161.21657
1024.00000,152.02979
1026.00000,194.09587
1028.00000,224.55757
1030.00000,241.55399
1032.00000,251.23257
1034.00000,233.56819
1036.00000,190.49503
1038.00000,168.63658
1040.00000,161.19182
1042.00000,142.17134
1044.00000,124.14536
1046.00000,130.91891
1048.00000,134.29869
1050.00000,131.83311
1052.00000,139.68788
1054.00000,136.96762
1056.00000,163.42984
1058.00000,188.73026
1060.00000,178.18181
1062.00000,181.19734
1064.00000,260.65002
1066.00000,283.60809
1068.00000,250.02562
1070.00000,256.94171
1072.00000,239.03552
1074.00000,233.21872
1076.00000,228.10954
1078.00000,223.43417
1080.00000,275.94785
1082.00000,372.41364
1084.00000,451.42502
1086.00000,473.45682
1088.00000,443.61139
1090.00000,384.95566
1092.00000,303.16098
1094.00000,227.39719
1096.00000,190.01520
1098.00000,182.29935
1100.00000,144.26787
1102.00000,87.74591
1104.00000,66.28664
1106.00000,80.15125
1108.00000,52.10760
1110.00000,28.08244
1112.00000,15.88400
1114.00000,20.46568
1116.00000,58.35491
1118.00000,62.31188
1120.00000,49.25516
1122.00000,44.93486
1124.00000,47.59426
1126.00000,48.88963
1128.00000,33.40934
1130.00000,23.40257
1132.00000,30.89747
1134.00000,39.76695
1136.00000,56.50257
1138.00000,58.80345
1140.00000,56.53696
1142.00000,74.77579
1144.00000,99.35690
1146.00000,111.62487
1148.00000,142.84328
1150.00000,189.32378
1152.00000,212.11034
1154.00000,256.42740
1156.00000,310.87689
1158.00000,332.33481
1160.00000,311.05148
1162.00000,282.63208
1164.00000,231.15961
1166.00000,235.87006
1168.00000,259.15863
1170.00000,200.83357
1172.00000,231.72882
1174.00000,207.21950
1176.00000,165.12779
1178.00000,218.75714
1180.00000,238.21489
1182.00000,209.28624
1184.00000,196.98634
1186.00000,199.93835
1188.00000,166.90317
1190.00000,158.32083
1192.00000,188.04646
1194.00000,201.43983
1196.00000,183.47356
1198.00000,199.81735
1200.00000,197.53764
1202.00000,199.60942
1204.00000,200.13245
1206.00000,165.43134
1208.00000,172.55280
1210.00000,144.15350
1212.00000,110.97945
1214.00000,125.63424
1216.00000,120.96812
1218.00000,145.55728
1220.00000,162.05864
1222.00000,163.20811
1224.00000,188.47859
1226.00000,190.32138
1228.00000,195.51685
1230.00000,228.29459
1232.00000,255.81851
1234.00000,235.18800
1236.00000,248.88632
1238.00000,306.22729
1240.00000,342.76541
1242.00000,347.80759
1244.00000,428.44562
1246.00000,448.20972
1248.00000,452.68881
1250.00000,521.85083
1252.00000,564.11597
1254.00000,650.27020
1256.00000,771.29181
1258.00000,887.47058
1260.00000,993.27246
1262.00000,1083.55444
1264.00000,1072.94031
1266.00000,938.32068
1268.00000,753.80829
1270.00000,606.28857
1272.00000,468.44308
1274.00000,370.09271
1276.00000,296.67984
1278.00000,217.89189
1280.00000,207.08092
1282.00000,205.68008
1284.00000,196.26866
1286.00000,219.29140
1288.00000,279.05566
1290.00000,291.24042
1292.00000,313.76791
1294.00000,363.48059
1296.00000,382.54996
1298.00000,389.72781
1300.00000,431.57083
1302.00000,432.08716
1304.00000,385.82458
1306.00000,414.35416
1308.00000,419.91632
1310.00000,463.78183
1312.00000,558.78900
1314.00000,657.59143
1316.00000,821.31299
1318.00000,1000.91455
1320.00000,1204.83215
1322.00000,1427.74500
1324.00000,1585.41150
1326.00000,1656.16870
1328.00000,1682.36926
1330.00000,1678.93652
1332.00000,1621.97668
1334.00000,1510.43860
1336.00000,1382.09875
1338.00000,1201.19421
1340.00000,992.77203
1342.00000,871.31396
1344.00000,793.86786
1346.00000,721.04065
1348.00000,709.19647
1350.00000,779.05780
1352.00000,781.23651
1354.00000,696.23248
1356.00000,555.77130
1358.00000,442.35187
1360.00000,405.30081
1362.00000,295.36740
1364.00000,224.25201
1366.00000,196.94627
1368.00000,125.19868
1370.00000,87.05832
1372.00000,72.76260
1374.00000,80.58705
1376.00000,77.52697
1378.00000,34.76221
1380.00000,67.59232
1382.00000,66.85477
1384.00000,53.33047
1386.00000,104.04499
1388.00000,100.17840
1390.00000,102.21829
1392.00000,139.47009
1394.00000,177.48026
1396.00000,202.50835
1398.00000,275.76575
1400.00000,311.18954
1402.00000,323.49246
1404.00000,346.50409
1406.00000,279.68384
1408.00000,245.41759
1410.00000,197.85426
1412.00000,131.97809
1414.00000,149.21988
1416.00000,135.65948
1418.00000,66.06113
1420.00000,41.49727
1422.00000,84.07016
1424.00000,51.41504
1426.00000,58.62914
1428.00000,64.04334
1430.00000,49.51319
1432.00000,83.24743
1434.00000,70.69331
1436.00000,101.34106
1438.00000,128.72650
1440.00000,93.42135
1442.00000,127.86840
1444.00000,153.36240
1446.00000,142.24405
1448.00000,129.00844
1450.00000,144.98711
1452.00000,182.72910
1454.00000,152.56540
1456.00000,132.11034
1458.00000,166.71521
1460.00000,99.75546
1462.00000,67.53911
1464.00000,118.06267
1466.00000,132.64835
1468.00000,55.25116
1470.00000,102.26332
1472.00000,93.55477
1474.00000,73.47787
1476.00000,138.37373
1478.00000,119.77090
1480.00000,142.46588
1482.00000,193.63428
1484.00000,222.51854
1486.00000,256.05347
1488.00000,310.58484
1490.00000,303.32953
1492.00000,300.50125
1494.00000,342.71564
1496.00000,307.80368
1498.00000,311.62894
1500.00000,346.91379
1502.00000,363.27780
1504.00000,364.55728
1506.00000,368.83459
1508.00000,385.44543
1510.00000,387.48166
1512.00000,361.66312
1514.00000,341.93323
1516.00000,328.87076
1518.00000,252.47469
1520.00000,168.40334
1522.00000,172.20268
1524.00000,143.50548
1526.00000,122.31488
1528.00000,84.96645
1530.00000,52.33138
1532.00000,113.30103
1534.00000,41.47835
1536.00000,50.86929
1538.00000,119.55307
1540.00000,42.02364
1542.00000,100.59525
1544.00000,114.15508
1546.00000,80.62357
1548.00000,86.73126
1550.00000,60.98425
1552.00000,58.13982
1554.00000,82.91785
1556.00000,84.35246
1558.00000,42.54139
1560.00000,19.59055
1562.00000,-3.78612
1564.00000,25.59218
1566.00000,111.04796
1568.00000,134.17529
1570.00000,103.37614
1572.00000,141.31577
1574.00000,200.45886
1576.00000,213.11513
1578.00000,360.06442
1580.00000,412.34747
1582.00000,460.64230
1584.00000,624.50409
1586.00000,757.71002
1588.00000,931.76440
1590.00000,1086.99536
1592.00000,1154.53369
1594.00000,1150.00940
1596.00000,1125.95496
1598.00000,1103.48779
1600.00000,1053.56909
1602.00000,954.19629
1604.00000,822.97314
1606.00000,677.16345
1608.00000,572.10492
1610.00000,486.45688
1612.00000,375.48880
1614.00000,300.00272
1616.00000,283.50961
1618.00000,232.59294
1620.00000,179.95206
1622.00000,239.68735
1624.00000,158.28462
1626.00000,97.26515
1628.00000,133.32047
1630.00000,136.29892
1632.00000,92.24644
1634.00000,132.84982
1636.00000,158.16719
1638.00000,105.81277
1640.00000,97.25478
1642.00000,95.14146
1644.00000,82.41276
1646.00000,99.21587
1648.00000,131.92311
1650.00000,78.56638
1652.00000,72.70164
1654.00000,107.36726
1656.00000,111.97587
1658.00000,111.71156
1660.00000,172.49483
1662.00000,176.83327
1664.00000,148.27266
1666.00000,184.69437
1668.00000,207.71150
1670.00000,167.56459
1672.00000,120.98009
1674.00000,112.15823
1676.00000,105.36301
1678.00000,78.86433
1680.00000,107.40093
1682.00000,120.57052
1684.00000,80.06335
1686.00000,140.21812
1688.00000,88.18915
1690.00000,57.50035
1692.00000,101.66431
1694.00000,65.60257
1696.00000,131.94566
1698.00000,116.26035
1700.00000,62.55630
1702.00000,102.08168
1704.00000,77.06718
1706.00000,72.41940
1708.00000,116.35184
1710.00000,148.01373
1712.00000,132.00131
1714.00000,138.48981
1716.00000,145.16507
1718.00000,127.26841
1720.00000,131.99821
1722.00000,204.58311
1724.00000,169.69440
1726.00000,131.84834
1728.00000,168.51274
1730.00000,185.33609
1732.00000,197.77020
1734.00000,197.03870
1736.00000,180.97656
1738.00000,159.56514
1740.00000,138.12843
1742.00000,127.32700
1744.00000,139.40755
1746.00000,147.54863
1748.00000,130.52026
1750.00000,149.89087
1752.00000,146.63066
1754.00000,135.71504
1756.00000,142.40993
1758.00000,112.44977
1760.00000,106.71154
1762.00000,85.19645
1764.00000,74.79723
1766.00000,138.81194
1768.00000,142.17027
1770.00000,72.46349
1772.00000,98.87313
1774.00000,184.17607
1776.00000,56.15600
1778.00000,70.10088
1780.00000,124.93903
1782.00000,106.02155
1784.00000,127.08780
1786.00000,168.82343
1788.00000,135.06175
1790.00000,96.16415
1792.00000,117.08295
1794.00000,105.12332
1796.00000,82.91981
1798.00000,41.87634
1800.00000,26.70816
1802.00000,78.97792
1804.00000,87.63731
1806.00000,50.53639
1808.00000,65.09191
1810.00000,111.02766
1812.00000,53.44003
1814.00000,68.14319
1816.00000,159.24762
1818.00000,132.81177
1820.00000,-1.06641
1822.00000,151.08421
1824.00000,94.50023
1826.00000,17.05432
1828.00000,157.59998
1830.00000,122.57176
1832.00000,67.31872
1834.00000,84.51009
1836.00000,98.68455
1838.00000,64.47243
1840.00000,105.70309
1842.00000,116.92344
1844.00000,114.63313
1846.00000,132.15764
1848.00000,90.83380
1850.00000,34.51626
1852.00000,101.97200
1854.00000,138.12178
1856.00000,20.28016
1858.00000,108.59628
1860.00000,106.93092
1862.00000,54.03551
1864.00000,108.42599
1866.00000,136.46974
1868.00000,61.37469
1870.00000,151.76895
1872.00000,199.08261
1874.00000,1.04858
1876.00000,155.05153
1878.00000,198.16675
1880.00000,116.34191
1882.00000,106.22514
1884.00000,83.75381
1886.00000,119.51347
1888.00000,203.94627
1890.00000,201.49335
1892.00000,110.80235
1894.00000,168.21919
1896.00000,94.37500
1898.00000,58.24905
1900.00000,173.30974
1902.00000,173.77103
1904.00000,161.77716
1906.00000,211.22853
1908.00000,163.01375
1910.00000,51.50573
1912.00000,261.10596
1914.00000,119.26599
1916.00000,44.52031
1918.00000,228.30376
1920.00000,71.63291
1922.00000,99.02210
1924.00000,157.99046
1926.00000,99.26631
1928.00000,77.69785
1930.00000,163.86197
1932.00000,75.90825
1934.00000,46.30006
1936.00000,137.46434
1938.00000,65.68452
1940.00000,129.72815
1942.00000,100.87562
1944.00000,-26.58432
1946.00000,1.24600
1948.00000,148.19316
1950.00000,106.57410
1952.00000,87.61346
1954.00000,137.39644
1956.00000,9.18631
1958.00000,37.07657
1960.00000,28.38773
1962.00000,24.38890
1964.00000,123.17680
1966.00000,58.46983
1968.00000,94.68721
1970.00000,89.70121
1972.00000,25.35596
1974.00000,118.39198
1976.00000,85.39659
1978.00000,63.87659
1980.00000,78.92939
1982.00000,46.33535
1984.00000,51.71366
1986.00000,86.82043
1988.00000,61.37795
1990.00000,-0.89370
1992.00000,17.00280
1994.00000,67.51472
1996.00000,50.59251
1998.00000,15.38789
2000.00000,33.35056
2002.00000,19.75027
2004.00000,9.03884
2006.00000,23.82172
2008.00000,29.24728
2010.00000,27.95566
2012.00000,28.61116
2014.00000,30.03484
2016.00000,31.33350
2018.00000,43.92038
2020.00000,42.84170
2022.00000,39.25852
2024.00000,47.74577
2026.00000,43.81316
2028.00000,46.75269
2030.00000,54.64222
2032.00000,66.11402
2034.00000,84.55022
2036.00000,82.88284
2038.00000,89.05305
2040.00000,99.36163
2042.00000,90.28073
2044.00000,84.49633
2046.00000,97.41295
2048.00000,114.40575
2050.00000,115.34839
2052.00000,104.56831
2054.00000,109.99482
2056.00000,119.97469
2058.00000,120.86487
2060.00000,119.88580
2062.00000,126.97105
2064.00000,125.39369
2066.00000,119.78822
2068.00000,121.65548
2070.00000,123.16715
2072.00000,120.88721
2074.00000,115.09825
2076.00000,122.33596
2078.00000,146.23253
2080.00000,137.70259
2082.00000,129.35828
2084.00000,141.77129
2086.00000,149.05203
2088.00000,128.99565
2090.00000,136.82860
2092.00000,137.87898
2094.00000,124.22595
2096.00000,143.93430
2098.00000,119.99428
2100.00000,87.17418
2102.00000,95.14275
2104.00000,121.75139
2106.00000,104.57877
2108.00000,97.64070
2110.00000,111.64960
2112.00000,111.26744
2114.00000,89.42655
2116.00000,93.50281
2118.00000,97.59808
2120.00000,93.61791
2122.00000,101.85285
2124.00000,89.01010
2126.00000,76.88605
2128.00000,82.11241
2130.00000,95.84412
2132.00000,101.31964
2134.00000,91.71979
2136.00000,97.15555
2138.00000,109.95018
2140.00000,95.95232
2142.00000,103.29915
2144.00000,109.90336
2146.00000,102.03463
2148.00000,98.72700
2150.00000,105.36063
2152.00000,88.50844
2154.00000,93.52109
2156.00000,121.26769
2158.00000,100.96220
2160.00000,108.35863
2162.00000,123.10999
2164.00000,106.10712
2166.00000,82.26387
2168.00000,107.79395
2170.00000,109.54840
2172.00000,110.09107
2174.00000,139.42970
2176.00000,130.90428
2178.00000,120.91246
2180.00000,127.10278
2182.00000,124.62189
2184.00000,102.03875
2186.00000,113.31303
2188.00000,118.16411
2190.00000,116.60461
2192.00000,130.40799
2194.00000,126.14580
2196.00000,111.46475
2198.00000,121.93645
2200.00000,138.09990
2202.00000,114.12914
2204.00000,125.47583
2206.00000,146.65489
2208.00000,140.02313
2210.00000,123.93199
2212.00000,140.50792
2214.00000,154.39372
2216.00000,147.71626
2218.00000,140.60739
2220.00000,153.23470
2222.00000,158.95302
2224.00000,143.98949
2226.00000,139.00980
2228.00000,159.54552
2230.00000,139.43399
2232.00000,133.62030
2234.00000,142.04424
2236.00000,130.05765
2238.00000,128.46658
2240.00000,174.86882
2242.00000,195.73265
2244.00000,167.63643
2246.00000,162.81612
2248.00000,175.36020
2250.00000,167.33739
2252.00000,156.81502
2254.00000,171.92790
2256.00000,177.42838
2258.00000,185.96629
2260.00000,197.82614
2262.00000,186.64221
2264.00000,146.99911
2266.00000,154.10422
2268.00000,174.49524
2270.00000,174.85088
2272.00000,175.48988
2274.00000,189.15309
2276.00000,174.40018
2278.00000,143.53654
2280.00000,137.36171
2282.00000,159.35020
2284.00000,184.98248
2286.00000,180.74409
2288.00000,159.26862
2290.00000,167.46404
2292.00000,201.85400
2294.00000,200.65871
2296.00000,171.59200
2298.00000,158.51274
2300.00000,155.52724
2302.00000,167.49580
2304.00000,165.27022
2306.00000,148.72261
2308.00000,158.97772
2310.00000,180.86052
2312.00000,176.30081
2314.00000,161.92436
2316.00000,180.65393
2318.00000,210.22751
2320.00000,178.46330
2322.00000,178.42184
2324.00000,224.62569
2326.00000,174.30023
2328.00000,181.67082
2330.00000,204.36720
2332.00000,187.59047
2334.00000,184.73764
2336.00000,222.06575
2338.00000,201.13541
2340.00000,173.95441
2342.00000,200.65001
2344.00000,186.10840
2346.00000,194.91455
2348.00000,210.28471
2350.00000,210.14032
2352.00000,217.43832
2354.00000,208.35837
2356.00000,202.43237
2358.00000,204.97632
2360.00000,203.47743
2362.00000,204.56213
2364.00000,215.90349
2366.00000,202.94931
2368.00000,173.26651
2370.00000,182.19536
2372.00000,183.61298
2374.00000,182.52003
2376.00000,193.97792
2378.00000,200.00510
2380.00000,178.02902
2382.00000,202.09981
2384.00000,226.01477
2386.00000,213.26712
2388.00000,236.55127
2390.00000,210.31697
2392.00000,195.09348
2394.00000,224.56868
2396.00000,227.25778
2398.00000,194.41341
2400.00000,208.24960
2402.00000,221.04965
2404.00000,185.76656
2406.00000,208.07027
2408.00000,209.14937
2410.00000,192.12646
2412.00000,179.23796
2414.00000,160.01688
2416.00000,187.97314
2418.00000,172.19658
2420.00000,144.02585
2422.00000,184.98293
2424.00000,181.98656
2426.00000,107.79308
2428.00000,65.52993
2430.00000,102.84112
2432.00000,125.52705
2434.00000,110.06219
2436.00000,96.29683
2438.00000,100.70034
2440.00000,98.10876
2442.00000,81.68451
2444.00000,92.77921
2446.00000,104.01960
2448.00000,84.19742
2450.00000,75.31445
2452.00000,66.97417
2454.00000,46.40805
2456.00000,53.27217
2458.00000,95.35934
2460.00000,31.77943
2462.00000,39.68773
2464.00000,95.46239
2466.00000,50.80324
2468.00000,13.16045
2470.00000,60.53104
2472.00000,85.91248
2474.00000,57.10826
2476.00000,94.82951
2478.00000,121.12005
2480.00000,98.68203
2482.00000,89.88109
2484.00000,133.25139
2486.00000,126.99468
2488.00000,103.34467
2490.00000,97.38533
2492.00000,123.02071
2494.00000,175.06392
2496.00000,163.16864
2498.00000,123.44569
2500.00000,112.42546
2502.00000,120.60317
2504.00000,121.48184
2506.00000,141.54645
2508.00000,148.12971
2510.00000,126.84673
2512.00000,147.05377
2514.00000,123.52737
2516.00000,113.30708
2518.00000,140.66196
2520.00000,123.16839
2522.00000,110.39334
2524.00000,84.92647
2526.00000,108.43187
2528.00000,169.54597
2530.00000,62.07144
2532.00000,98.10332
2534.00000,162.87697
2536.00000,91.78061
2538.00000,89.25996
2540.00000,147.77168
2542.00000,152.03693
2544.00000,109.99194
2546.00000,122.76804
2548.00000,157.77751
2550.00000,128.03120
2552.00000,111.09644
2554.00000,161.68433
2556.00000,149.23331
2558.00000,106.44372
2560.00000,107.65945
2562.00000,145.38948
2564.00000,152.71880
2566.00000,146.17232
2568.00000,161.61580
2570.00000,165.31494
2572.00000,133.22110
2574.00000,134.66812
2576.00000,140.17177
2578.00000,170.83507
2580.00000,201.00845
2582.00000,157.18886
2584.00000,148.94576
2586.00000,177.33932
2588.00000,173.63428
2590.00000,134.46812
2592.00000,163.43779
2594.00000,191.59041
2596.00000,176.94743
2598.00000,144.55238
2600.00000,136.00259
2602.00000,180.18884
2604.00000,167.76630
2606.00000,132.98183
2608.00000,184.53885
2610.00000,147.33176
2612.00000,98.11701
2614.00000,123.93030
2616.00000,171.58516
2618.00000,142.68674
2620.00000,164.82225
2622.00000,160.51057
2624.00000,105.32325
2626.00000,134.12477
2628.00000,178.34163
2630.00000,161.68820
2632.00000,139.57253
2634.00000,166.98445
2636.00000,145.06041
2638.00000,143.16595
2640.00000,148.08772
2642.00000,139.11375
2644.00000,158.29572
2646.00000,136.99023
2648.00000,123.29189
2650.00000,144.13002
2652.00000,141.31052
2654.00000,92.35567
2656.00000,144.97659
2658.00000,193.88490
2660.00000,128.50023
2662.00000,117.31394
2664.00000,150.41118
2666.00000,167.14491
2668.00000,146.08411
2670.00000,132.96617
2672.00000,188.70723
2674.00000,186.98962
2676.00000,165.92395
2678.00000,202.81264
2680.00000,172.33521
2682.00000,177.57951
2684.00000,145.55814
2686.00000,110.31374
2688.00000,220.42665
2690.00000,147.64012
2692.00000,96.86526
2694.00000,155.35056
2696.00000,153.97839
2698.00000,128.34518
2700.00000,152.31473
2702.00000,158.15543
2704.00000,114.05904
2706.00000,129.93776
2708.00000,155.34821
2710.00000,129.62317
2712.00000,99.81951
2714.00000,132.35881
2716.00000,130.82407
2718.00000,95.01675
2720.00000,108.49767
2722.00000,163.77742
2724.00000,131.78369
2726.00000,150.38147
2728.00000,173.95567
2730.00000,123.44535
2732.00000,81.72942
2734.00000,171.42099
2736.00000,195.85649
2738.00000,115.68526
2740.00000,90.59729
2742.00000,140.95293
2744.00000,107.19411
2746.00000,82.50766
2748.00000,127.48064
2750.00000,102.16904
2752.00000,125.88580
2754.00000,141.07448
2756.00000,132.78181
2758.00000,154.36417
2760.00000,123.54404
2762.00000,81.66806
2764.00000,96.08955
2766.00000,140.42821
2768.00000,120.32880
2770.00000,107.62301
2772.00000,71.37978
2774.00000,54.18997
2776.00000,124.75462
2778.00000,84.73119
2780.00000,77.59229
2782.00000,115.47133
2784.00000,91.11685
2786.00000,80.12424
2788.00000,152.72272
2790.00000,128.51654
2792.00000,37.54819
2794.00000,135.47211
2796.00000,130.31418
2798.00000,102.09537
2800.00000,75.42313
2802.00000,0.41218
2804.00000,60.50977
2806.00000,71.92164
2808.00000,12.24784
2810.00000,28.68069
2812.00000,136.08153
2814.00000,70.38203
2816.00000,-10.88246
2818.00000,18.48285
2820.00000,34.75292
2822.00000,2.14675
2824.00000,45.25947
2826.00000,72.35545
2828.00000,-0.91517
2830.00000,11.85480
2832.00000,46.25948
2834.00000,40.78460
2836.00000,8.74970
2838.00000,2.21490
2840.00000,44.14411
2842.00000,49.70678
2844.00000,79.14989
2846.00000,183.23373
2848.00000,167.68739
2850.00000,120.86110
2852.00000,188.86864
2854.00000,276.98059
2856.00000,200.48103
2858.00000,299.51804
2860.00000,335.68848
2862.00000,237.27899
2864.00000,261.72806
2866.00000,356.28918
2868.00000,349.29102
2870.00000,316.49774
2872.00000,361.16125
2874.00000,371.80072
2876.00000,364.47424
2878.00000,375.46155
2880.00000,388.91565
2882.00000,363.68011
2884.00000,327.00381
2886.00000,349.01129
2888.00000,405.64902
2890.00000,421.12918
2892.00000,397.64484
2894.00000,408.68469
2896.00000,469.00546
2898.00000,512.34467
2900.00000,495.66064
2902.00000,537.50433
2904.00000,577.26599
2906.00000,530.10468
2908.00000,508.03525
2910.00000,719.56152
2912.00000,652.25262
2914.00000,542.15430
2916.00000,698.59308
2918.00000,730.82483
2920.00000,629.98822
2922.00000,646.40448
2924.00000,711.98981
2926.00000,637.45612
2928.00000,754.39099
2930.00000,742.21820
2932.00000,673.13892
2934.00000,775.03619
2936.00000,785.59216
2938.00000,634.03436
2940.00000,635.91986
2942.00000,739.62024
2944.00000,582.16779
2946.00000,555.32782
2948.00000,532.47449
2950.00000,484.83829
2952.00000,513.42578
2954.00000,466.80902
2956.00000,445.45795
2958.00000,445.92319
2960.00000,418.33591
2962.00000,400.48737
2964.00000,409.94162
2966.00000,357.76910
2968.00000,327.51349
2970.00000,379.84064
2972.00000,239.80983
2974.00000,315.06186
2976.00000,361.44968
2978.00000,180.15588
2980.00000,291.76074
2982.00000,288.40030
2984.00000,175.52730
2986.00000,150.53059
2988.00000,175.53362
2990.00000,84.66789
2992.00000,138.01459
2994.00000,189.02190
2996.00000,35.32027
2998.00000,35.93380
3000.00000,76.78976
3002.00000,122.32088
3004.00000,148.78500
3006.00000,81.28284
3008.00000,61.40340
3010.00000,44.89611
3012.00000,4.50239
3014.00000,-1.10832
3016.00000,35.34261
3018.00000,37.73360
3020.00000,54.18612
3022.00000,84.85216
3024.00000,14.19708
3026.00000,-5.27066
3028.00000,88.54656
3030.00000,154.29033
3032.00000,81.96016
3034.00000,93.40108
3036.00000,200.02022
3038.00000,263.52536
3040.00000,261.05478
3042.00000,355.55722
3044.00000,443.48514
3046.00000,384.21176
3048.00000,389.92572
3050.00000,634.68707
3052.00000,445.72559
3054.00000,541.81458
3056.00000,764.31482
3058.00000,526.78613
3060.00000,556.31207
3062.00000,742.90790
3064.00000,743.30847
3066.00000,573.35382
3068.00000,546.57452
3070.00000,554.27905
3072.00000,485.26117
3074.00000,483.34399
3076.00000,578.65033
3078.00000,336.21832
3080.00000,270.16019
3082.00000,451.24246
3084.00000,474.37808
3086.00000,233.47810
3088.00000,225.13039
3090.00000,297.68872
3092.00000,293.89148
3094.00000,339.94617
3096.00000,282.18924
3098.00000,287.38647
3100.00000,265.08139
3102.00000,136.03671
3104.00000,214.57797
3106.00000,241.17970
3108.00000,190.88948
3110.00000,175.49240
3112.00000,198.41376
3114.00000,253.87122
3116.00000,211.74127
3118.00000,208.06497
3120.00000,337.66626
3122.00000,218.13818
3124.00000,157.55287
3126.00000,343.24493
3128.00000,431.18442
3130.00000,92.29356
3132.00000,201.97221
3134.00000,356.02820
3136.00000,172.88792
3138.00000,79.90640
3140.00000,363.04562
3142.00000,223.97638
3144.00000,3.42973
3146.00000,203.24565
3148.00000,106.67220
3150.00000,70.77100
3152.00000,165.41968
3154.00000,148.81232
3156.00000,4.32990
3158.00000,140.43483
3160.00000,113.52903
3162.00000,22.74990
3164.00000,163.32582
3166.00000,40.08948
3168.00000,71.28120
3170.00000,60.44843
3172.00000,25.50982
3174.00000,402.28705
3176.00000,179.40828
3178.00000,-0.51994
3180.00000,173.86369
3182.00000,171.60741
3184.00000,108.55349
3186.00000,171.60765
3188.00000,171.31302
3190.00000,16.71675
3192.00000,43.43244
3194.00000,195.92969
3196.00000,140.05411
3198.00000,17.06631
3200.00000,196.19568
