300.00000,112.77840
302.00000,123.94289
304.00000,130.14206
306.00000,136.00803
308.00000,155.75150
310.00000,179.80035
312.00000,181.53276
314.00000,180.33272
316.00000,180.61198
318.00000,181.25717
320.00000,176.38905
322.00000,154.86565
324.00000,137.05994
326.00000,133.33267
328.00000,144.11658
330.00000,161.13655
332.00000,156.94087
334.00000,134.25514
336.00000,121.83034
338.00000,136.60832
340.00000,155.96793
342.00000,155.62254
344.00000,132.83571
346.00000,118.00974
348.00000,142.26990
350.00000,180.00951
352.00000,221.55287
354.00000,245.04855
356.00000,246.36687
358.00000,263.62173
360.00000,277.62762
362.00000,280.37128
364.00000,256.75366
366.00000,201.85133
368.00000,179.15028
370.00000,170.40498
372.00000,157.44133
374.00000,140.79208
376.00000,117.71423
378.00000,115.07843
380.00000,126.88883
382.00000,128.18623
384.00000,110.48112
386.00000,96.06160
388.00000,98.18243
390.00000,122.36770
392.00000,144.44449
394.00000,132.35863
396.00000,163.84628
398.00000,201.55208
400.00000,221.75665
402.00000,250.13445
404.00000,230.93163
406.00000,212.25754
408.00000,196.29436
410.00000,168.18695
412.00000,167.54691
414.00000,172.13004
416.00000,156.59920
418.00000,129.42813
420.00000,115.90332
422.00000,111.29192
424.00000,102.60446
426.00000,105.25071
428.00000,105.09077
430.00000,56.78500
432.00000,52.73084
434.00000,86.17692
436.00000,112.83083
438.00000,123.34431
440.00000,127.74153
442.00000,147.11337
444.00000,151.35352
446.00000,129.11447
448.00000,127.76654
450.00000,122.74704
452.00000,146.30907
454.00000,174.68196
456.00000,158.59814
458.00000,170.77359
460.00000,197.25876
462.00000,210.16713
464.00000,199.40685
466.00000,175.26381
468.00000,178.81296
470.00000,167.77943
472.00000,127.78278
474.00000,106.10912
476.00000,119.18443
478.00000,110.41864
480.00000,81.91652
482.00000,67.73460
484.00000,71.12315
486.00000,91.37809
488.00000,101.12799
490.00000,86.53773
492.00000,73.64727
494.00000,101.91427
496.00000,133.25064
498.00000,141.84375
500.00000,130.35605
502.00000,113.48558
504.00000,116.07141
506.00000,119.45818
508.00000,116.48446
510.00000,122.44501
512.00000,138.21803
514.00000,160.95993
516.00000,167.13036
518.00000,143.98817
520.00000,119.64426
522.00000,134.21898
524.00000,130.96654
526.00000,109.64687
528.00000,120.73471
530.00000,137.21236
532.00000,129.73090
534.00000,117.73829
536.00000,109.91825
538.00000,88.04555
540.00000,94.88361
542.00000,115.43481
544.00000,111.74738
546.00000,79.72221
548.00000,59.37192
550.00000,56.19034
552.00000,73.00985
554.00000,88.98058
556.00000,73.47771
558.00000,65.17680
560.00000,85.31960
562.00000,95.00465
564.00000,67.71809
566.00000,57.87397
568.00000,53.64879
570.00000,55.88110
572.00000,59.27034
574.00000,43.82703
576.00000,32.66315
578.00000,38.88427
580.00000,57.76450
582.00000,65.77837
584.00000,45.05853
586.00000,56.92529
588.00000,67.53414
590.00000,50.95185
592.00000,46.57899
594.00000,37.31160
596.00000,49.12848
598.00000,75.45732
600.00000,86.20828
602.00000,84.94506
604.00000,72.80656
606.00000,86.88563
608.00000,112.46986
610.00000,95.89001
612.00000,91.66228
614.00000,104.63627
616.00000,118.60908
618.00000,153.75310
620.00000,239.78755
622.00000,253.33601
624.00000,210.51149
626.00000,185.96201
628.00000,182.73029
630.00000,154.05844
632.00000,132.39850
634.00000,124.73309
636.00000,111.31033
638.00000,112.15409
640.00000,170.63257
642.00000,229.45589
644.00000,249.64706
646.00000,257.63358
648.00000,241.33272
650.00000,216.20262
652.00000,190.22275
654.00000,166.11256
656.00000,157.77209
658.00000,159.53343
660.00000,135.56972
662.00000,103.83514
664.00000,107.26700
666.00000,92.97672
668.00000,88.34895
670.00000,122.90652
672.00000,145.49310
674.00000,82.62095
676.00000,70.15132
678.00000,87.26354
680.00000,84.44215
682.00000,94.51933
684.00000,130.51822
686.00000,94.21836
688.00000,29.54937
690.00000,28.49914
692.00000,57.05332
694.00000,80.34322
696.00000,71.16482
698.00000,43.01397
700.00000,30.10065
702.00000,28.53885
704.00000,46.36674
706.00000,65.85892
708.00000,72.93748
710.00000,81.34430
712.00000,74.46665
714.00000,69.07195
716.00000,65.74398
718.00000,48.36892
720.00000,38.64725
722.00000,39.45992
724.00000,46.97330
726.00000,52.38758
728.00000,47.72947
730.00000,51.47351
732.00000,68.53372
734.00000,69.50642
736.00000,40.62053
738.00000,40.77712
740.00000,70.36701
742.00000,82.15809
744.00000,68.45158
746.00000,75.82782
748.00000,74.17499
750.00000,64.01424
752.00000,55.11075
754.00000,61.53111
756.00000,103.54572
758.00000,89.28844
760.00000,41.11777
762.00000,32.06425
764.00000,56.27538
766.00000,70.75140
768.00000,50.93126
770.00000,37.22925
772.00000,59.53556
774.00000,51.72572
776.00000,54.55495
778.00000,74.79300
780.00000,95.01420
782.00000,114.89929
784.00000,111.01748
786.00000,102.23300
788.00000,100.87640
790.00000,105.36357
792.00000,127.87145
794.00000,150.44943
796.00000,169.51898
798.00000,216.50673
800.00000,298.99875
802.00000,303.19919
804.00000,244.87224
806.00000,184.69057
808.00000,149.56284
810.00000,134.40855
812.00000,125.24962
814.00000,96.26877
816.00000,66.05647
818.00000,85.21528
820.00000,117.99400
822.00000,144.72656
824.00000,147.84550
826.00000,137.05817
828.00000,163.02592
830.00000,172.66943
832.00000,153.41968
834.00000,130.33438
836.00000,113.58615
838.00000,95.65681
840.00000,113.78188
842.00000,142.63197
844.00000,128.26656
846.00000,99.60334
848.00000,113.60561
850.00000,128.87256
852.00000,116.38538
854.00000,108.31322
856.00000,76.74271
858.00000,53.76117
860.00000,50.36642
862.00000,49.08529
864.00000,49.51726
866.00000,38.64557
868.00000,37.54777
870.00000,57.85635
872.00000,78.32911
874.00000,87.89773
876.00000,80.46254
878.00000,72.29331
880.00000,77.49502
882.00000,79.33227
884.00000,69.69267
886.00000,53.24342
888.00000,41.03234
890.00000,37.25589
892.00000,31.46205
894.00000,38.30729
896.00000,57.70835
898.00000,71.66909
900.00000,70.47025
902.00000,64.12441
904.00000,69.97340
906.00000,87.60205
908.00000,96.01084
910.00000,87.15191
912.00000,105.72532
914.00000,132.58128
916.00000,128.20984
918.00000,118.51538
920.00000,113.06163
922.00000,104.81101
924.00000,83.27442
926.00000,56.99953
928.00000,59.44152
930.00000,56.74028
932.00000,28.90802
934.00000,12.11098
936.00000,44.85991
938.00000,41.42050
940.00000,15.33438
942.00000,10.78155
944.00000,20.77562
946.00000,21.16536
948.00000,51.94625
950.00000,79.91841
952.00000,65.79723
954.00000,57.83322
956.00000,62.28872
958.00000,47.24430
960.00000,16.99060
962.00000,9.72073
964.00000,18.48345
966.00000,14.47087
968.00000,4.90655
970.00000,5.99433
972.00000,8.05101
974.00000,15.02056
976.00000,14.89164
978.00000,6.15763
980.00000,2.70829
982.00000,7.27144
984.00000,19.50560
986.00000,27.45465
988.00000,27.95621
990.00000,38.82158
992.00000,69.20131
994.00000,136.24736
996.00000,226.41786
998.00000,305.00272
1000.00000,366.58304
1002.00000,400.31052
1004.00000,356.46198
1006.00000,236.71648
1008.00000,135.82657
1010.00000,94.97581
1012.00000,88.15020
1014.00000,85.58608
1016.00000,91.34813
1018.00000,123.78177
1020.00000,149.95763
1022.00000,155.44551
1024.00000,163.61613
1026.00000,196.96880
1028.00000,218.50594
1030.00000,216.15114
1032.00000,204.83141
1034.00000,195.60715
1036.00000,179.35114
1038.00000,176.52817
1040.00000,178.62975
1042.00000,167.68076
1044.00000,156.22514
1046.00000,175.77724
1048.00000,199.43440
1050.00000,202.50980
1052.00000,201.16620
1054.00000,225.98126
1056.00000,256.93054
1058.00000,288.23428
1060.00000,325.85855
1062.00000,371.15958
1064.00000,430.62601
1066.00000,462.88104
1068.00000,466.04672
1070.00000,463.39133
1072.00000,435.93579
1074.00000,419.44629
1076.00000,427.92545
1078.00000,458.90115
1080.00000,525.83191
1082.00000,647.68542
1084.00000,765.92236
1086.00000,842.46484
1088.00000,852.80505
1090.00000,742.09253
1092.00000,582.95898
1094.00000,447.59766
1096.00000,351.03848
1098.00000,273.80457
1100.00000,219.56418
1102.00000,175.98940
1104.00000,143.86301
1106.00000,119.81846
1108.00000,73.74441
1110.00000,31.67360
1112.00000,33.06087
1114.00000,63.75006
1116.00000,67.66604
1118.00000,54.55135
1120.00000,82.01463
1122.00000,110.98159
1124.00000,79.69239
1126.00000,47.08059
1128.00000,53.20753
1130.00000,49.29037
1132.00000,27.04421
1134.00000,38.83672
1136.00000,40.70876
1138.00000,60.93431
1140.00000,104.72515
1142.00000,126.86974
1144.00000,98.82540
1146.00000,77.99830
1148.00000,123.35741
1150.00000,199.02831
1152.00000,236.28291
1154.00000,312.11893
1156.00000,419.70520
1158.00000,477.57687
1160.00000,452.78586
1162.00000,417.91925
1164.00000,374.09793
1166.00000,353.35025
1168.00000,354.91885
1170.00000,337.81607
1172.00000,323.88452
1174.00000,304.68692
1176.00000,267.52023
1178.00000,229.10170
1180.00000,225.00986
1182.00000,232.82050
1184.00000,207.87199
1186.00000,152.59029
1188.00000,117.75567
1190.00000,123.56536
1192.00000,135.31764
1194.00000,148.44623
1196.00000,176.11745
1198.00000,204.58859
1200.00000,228.28497
1202.00000,234.22615
1204.00000,228.98267
1206.00000,225.25739
1208.00000,199.65465
1210.00000,182.40480
1212.00000,175.47639
1214.00000,166.64977
1216.00000,171.39682
1218.00000,184.09158
1220.00000,194.40141
1222.00000,223.86292
1224.00000,278.54935
1226.00000,283.53510
1228.00000,299.05963
1230.00000,342.80286
1232.00000,381.36716
1234.00000,408.46512
1236.00000,434.10446
1238.00000,494.48090
1240.00000,589.28040
1242.00000,675.35675
1244.00000,738.68555
1246.00000,832.39185
1248.00000,912.73041
1250.00000,969.13220
1252.00000,1104.72070
1254.00000,1259.61304
1256.00000,1494.92334
1258.00000,1781.10339
1260.00000,2001.69824
1262.00000,2171.56055
1264.00000,2136.97705
1266.00000,1863.65393
1268.00000,1470.51428
1270.00000,1090.62817
1272.00000,769.73370
1274.00000,553.57538
1276.00000,411.27390
1278.00000,292.76132
1280.00000,250.99889
1282.00000,212.68201
1284.00000,183.87347
1286.00000,219.37114
1288.00000,300.16397
1290.00000,342.82840
1292.00000,383.56830
1294.00000,469.61737
1296.00000,563.59949
1298.00000,587.14948
1300.00000,612.35260
1302.00000,634.97894
1304.00000,627.61987
1306.00000,641.22290
1308.00000,720.20148
1310.00000,856.77625
1312.00000,1029.97290
1314.00000,1256.61255
1316.00000,1592.30774
1318.00000,2013.32666
1320.00000,2516.26147
1322.00000,3009.91650
1324.00000,3330.41553
1326.00000,3538.69580
1328.00000,3642.59546
1330.00000,3574.34033
1332.00000,3379.54028
1334.00000,3252.19312
1336.00000,2891.47559
1338.00000,2455.53516
1340.00000,2143.81519
1342.00000,1813.08997
1344.00000,1566.78186
1346.00000,1458.50854
1348.00000,1512.14551
1350.00000,1651.84753
1352.00000,1651.96436
1354.00000,1510.05481
1356.00000,1223.64050
1358.00000,922.17303
1360.00000,781.48639
1362.00000,575.02765
1364.00000,433.19379
1366.00000,351.76157
1368.00000,204.38643
1370.00000,115.08537
1372.00000,131.69478
1374.00000,128.51561
1376.00000,66.54346
1378.00000,52.58452
1380.00000,31.44208
1382.00000,38.22425
1384.00000,76.47138
1386.00000,104.97121
1388.00000,127.90797
1390.00000,171.80286
1392.00000,246.64059
1394.00000,350.84714
1396.00000,479.78415
1398.00000,608.85052
1400.00000,662.27814
1402.00000,719.32190
1404.00000,778.90161
1406.00000,609.32990
1408.00000,518.58270
1410.00000,416.66141
1412.00000,255.04050
1414.00000,233.06198
1416.00000,188.12317
1418.00000,138.71986
1420.00000,120.04210
1422.00000,115.90913
1424.00000,122.75395
1426.00000,126.61279
1428.00000,91.17020
1430.00000,53.98384
1432.00000,75.45727
1434.00000,71.88151
1436.00000,140.94685
1438.00000,184.89667
1440.00000,101.48469
1442.00000,73.94631
1444.00000,87.00718
1446.00000,80.97156
1448.00000,67.14933
1450.00000,90.53922
1452.00000,103.54361
1454.00000,73.30061
1456.00000,59.51928
1458.00000,82.20596
1460.00000,48.83434
1462.00000,34.96416
1464.00000,36.74152
1466.00000,36.36030
1468.00000,43.29160
1470.00000,21.73591
1472.00000,13.74761
1474.00000,35.04411
1476.00000,49.40723
1478.00000,50.32785
1480.00000,152.02867
1482.00000,199.44287
1484.00000,243.13646
1486.00000,458.46872
1488.00000,527.18811
1490.00000,514.74622
1492.00000,546.74683
1494.00000,588.26331
1496.00000,555.72833
1498.00000,629.24286
1500.00000,710.83643
1502.00000,705.41565
1504.00000,693.00238
1506.00000,732.85236
1508.00000,792.40271
1510.00000,809.64630
1512.00000,769.41510
1514.00000,699.71112
1516.00000,560.61316
1518.00000,439.43408
1520.00000,361.29678
1522.00000,286.31863
1524.00000,274.85223
1526.00000,195.01424
1528.00000,139.40866
1530.00000,150.03650
1532.00000,49.45341
1534.00000,66.69001
1536.00000,116.33585
1538.00000,119.48109
1540.00000,147.02170
1542.00000,169.34012
1544.00000,125.01285
1546.00000,140.08640
1548.00000,221.50351
1550.00000,168.15717
1552.00000,172.63455
1554.00000,148.78488
1556.00000,133.71538
1558.00000,191.41895
1560.00000,35.91937
1562.00000,53.48642
1564.00000,122.67838
1566.00000,68.89565
1568.00000,143.20216
1570.00000,175.21138
1572.00000,289.66629
1574.00000,410.59052
1576.00000,414.07602
1578.00000,635.29114
1580.00000,832.83685
1582.00000,949.10345
1584.00000,1199.29907
1586.00000,1653.64832
1588.00000,1926.55164
1590.00000,2238.51758
1592.00000,2481.84375
1594.00000,2385.12378
1596.00000,2345.74097
1598.00000,2241.50488
1600.00000,2014.75195
1602.00000,1784.78003
1604.00000,1601.22437
1606.00000,1278.61206
1608.00000,1041.56506
1610.00000,898.54498
1612.00000,698.34564
1614.00000,584.50708
1616.00000,369.54324
1618.00000,301.24847
1620.00000,398.28171
1622.00000,274.19717
1624.00000,281.97156
1626.00000,222.05693
1628.00000,130.60199
1630.00000,209.46854
1632.00000,211.69987
1634.00000,196.67529
1636.00000,189.77135
1638.00000,167.99512
1640.00000,168.30153
1642.00000,245.91866
1644.00000,202.48639
1646.00000,149.26810
1648.00000,224.49367
1650.00000,142.15305
1652.00000,174.58693
1654.00000,202.64297
1656.00000,136.46738
1658.00000,176.28030
1660.00000,209.26007
1662.00000,297.43539
1664.00000,341.07214
1666.00000,282.39633
1668.00000,358.04324
1670.00000,304.84473
1672.00000,218.86951
1674.00000,192.64301
1676.00000,123.34961
1678.00000,192.09254
1680.00000,188.97928
1682.00000,118.81184
1684.00000,136.59164
1686.00000,154.09758
1688.00000,176.48016
1690.00000,169.48425
1692.00000,156.72240
1694.00000,200.14680
1696.00000,199.20987
1698.00000,138.51894
1700.00000,145.91093
1702.00000,210.65469
1704.00000,115.39544
1706.00000,149.42090
1708.00000,157.83781
1710.00000,86.51468
1712.00000,144.21678
1714.00000,123.53153
1716.00000,101.42738
1718.00000,94.30789
1720.00000,64.14170
1722.00000,75.50316
1724.00000,61.72662
1726.00000,84.65618
1728.00000,121.84269
1730.00000,72.99924
1732.00000,65.52851
1734.00000,104.70679
1736.00000,122.83383
1738.00000,113.37877
1740.00000,140.39999
1742.00000,126.88808
1744.00000,137.48521
1746.00000,195.17464
1748.00000,194.07127
1750.00000,106.30013
1752.00000,142.87115
1754.00000,158.77228
1756.00000,66.30066
1758.00000,159.33319
1760.00000,143.01201
1762.00000,115.03107
1764.00000,108.72702
1766.00000,4.31962
1768.00000,36.36587
1770.00000,110.60883
1772.00000,106.38163
1774.00000,68.50663
1776.00000,103.37523
1778.00000,88.29592
1780.00000,82.75930
1782.00000,93.95999
1784.00000,65.92027
1786.00000,115.76009
1788.00000,114.19615
1790.00000,78.92912
1792.00000,81.41204
1794.00000,74.19439
1796.00000,113.02455
1798.00000,68.65200
1800.00000,28.34925
1802.00000,135.18434
1804.00000,92.31481
1806.00000,57.32998
1808.00000,79.09393
1810.00000,103.23475
1812.00000,137.00412
1814.00000,67.98237
1816.00000,80.82520
1818.00000,121.47683
1820.00000,35.09297
1822.00000,100.68539
1824.00000,53.41151
1826.00000,54.75126
1828.00000,163.39569
1830.00000,19.84704
1832.00000,29.77345
1834.00000,48.51958
1836.00000,9.43093
1838.00000,72.81091
1840.00000,117.69826
1842.00000,93.80965
1844.00000,90.88572
1846.00000,90.30223
1848.00000,-1.84829
1850.00000,112.46707
1852.00000,145.13434
1854.00000,65.83001
1856.00000,116.85747
1858.00000,145.52676
1860.00000,223.52997
1862.00000,166.78181
1864.00000,21.23279
1866.00000,141.48392
1868.00000,173.10057
1870.00000,130.69861
1872.00000,111.41602
1874.00000,134.13431
1876.00000,222.11882
1878.00000,130.82901
1880.00000,104.39848
1882.00000,195.82327
1884.00000,97.34736
1886.00000,255.47636
1888.00000,173.27713
1890.00000,7.40727
1892.00000,176.62985
1894.00000,48.28043
1896.00000,-8.54810
1898.00000,138.72610
1900.00000,206.12231
1902.00000,46.39605
1904.00000,92.20518
1906.00000,238.40762
1908.00000,254.15092
1910.00000,166.00697
1912.00000,185.82678
1914.00000,232.13905
1916.00000,107.72498
1918.00000,23.85629
1920.00000,261.95279
1922.00000,127.84061
1924.00000,94.17712
1926.00000,227.44218
1928.00000,161.66939
1930.00000,100.39645
1932.00000,93.57338
1934.00000,128.32680
1936.00000,116.95503
1938.00000,12.25569
1940.00000,34.71116
1942.00000,127.82929
1944.00000,109.89342
1946.00000,-0.40817
1948.00000,41.06078
1950.00000,58.09542
1952.00000,69.04037
1954.00000,69.03614
1956.00000,-1.06920
1958.00000,117.28078
1960.00000,121.72260
1962.00000,36.27317
1964.00000,117.92451
1966.00000,246.42268
1968.00000,225.02177
1970.00000,142.26462
1972.00000,165.06976
1974.00000,266.57388
1976.00000,237.40503
1978.00000,187.77411
1980.00000,195.99152
1982.00000,174.81136
1984.00000,72.23862
1986.00000,156.03912
1988.00000,257.95624
1990.00000,193.51376
1992.00000,106.87580
1994.00000,179.86272
1996.00000,218.83527
1998.00000,166.67703
2000.00000,13.21850
2002.00000,15.53372
2004.00000,13.28572
2006.00000,8.96632
2008.00000,6.03665
2010.00000,6.45098
2012.00000,20.22300
2014.00000,38.83389
2016.00000,44.18833
2018.00000,45.16131
2020.00000,40.65887
2022.00000,38.28089
2024.00000,40.57308
2026.00000,37.87493
2028.00000,54.94430
2030.00000,63.23388
2032.00000,55.23286
2034.00000,61.75465
2036.00000,60.58921
2038.00000,73.36934
2040.00000,103.71043
2042.00000,119.54001
2044.00000,102.31158
2046.00000,106.07550
2048.00000,111.84025
2050.00000,106.37002
2052.00000,125.46180
2054.00000,121.43350
2056.00000,112.08412
2058.00000,119.54429
2060.00000,134.90331
2062.00000,151.70990
2064.00000,177.35747
2066.00000,179.04501
2068.00000,171.04660
2070.00000,225.21104
2072.00000,237.42896
2074.00000,216.94705
2076.00000,218.48865
2078.00000,233.92145
2080.00000,214.97430
2082.00000,248.97069
2084.00000,286.09369
2086.00000,255.63559
2088.00000,266.45557
2090.00000,292.89651
2092.00000,270.27057
2094.00000,223.95093
2096.00000,225.35475
2098.00000,191.60936
2100.00000,149.94705
2102.00000,140.56863
2104.00000,148.42570
2106.00000,142.36414
2108.00000,150.14070
2110.00000,150.66580
2112.00000,125.64733
2114.00000,119.07940
2116.00000,155.64697
2118.00000,154.87976
2120.00000,115.47025
2122.00000,113.32246
2124.00000,120.05920
2126.00000,135.43048
2128.00000,123.80457
2130.00000,97.25381
2132.00000,141.56364
2134.00000,149.51219
2136.00000,141.84013
2138.00000,164.88936
2140.00000,186.95224
2142.00000,185.09627
2144.00000,183.71725
2146.00000,185.25076
2148.00000,179.49336
2150.00000,186.12341
2152.00000,197.77614
2154.00000,199.09070
2156.00000,205.25545
2158.00000,241.17708
2160.00000,252.30888
2162.00000,221.23386
2164.00000,180.31071
2166.00000,188.66359
2168.00000,270.20444
2170.00000,282.43704
2172.00000,248.93898
2174.00000,256.85501
2176.00000,272.28604
2178.00000,283.54105
2180.00000,292.27719
2182.00000,302.09811
2184.00000,315.26556
2186.00000,331.41046
2188.00000,336.44568
2190.00000,333.80682
2192.00000,347.39160
2194.00000,378.53314
2196.00000,343.70303
2198.00000,339.65955
2200.00000,387.42224
2202.00000,354.62610
2204.00000,315.35608
2206.00000,332.79190
2208.00000,351.96808
2210.00000,324.11502
2212.00000,348.16223
2214.00000,391.63452
2216.00000,402.50882
2218.00000,403.09116
2220.00000,440.37073
2222.00000,412.30670
2224.00000,388.15823
2226.00000,412.57394
2228.00000,413.84882
2230.00000,358.81192
2232.00000,358.31442
2234.00000,379.61780
2236.00000,358.82932
2238.00000,376.62204
2240.00000,421.74078
2242.00000,438.02008
2244.00000,432.01624
2246.00000,450.15643
2248.00000,444.18146
2250.00000,446.62283
2252.00000,462.52350
2254.00000,452.70682
2256.00000,416.47281
2258.00000,429.91763
2260.00000,450.54358
2262.00000,445.53586
2264.00000,465.25064
2266.00000,463.39978
2268.00000,460.47928
2270.00000,480.65604
2272.00000,505.67667
2274.00000,511.37915
2276.00000,538.43646
2278.00000,557.49774
2280.00000,544.39783
2282.00000,556.68201
2284.00000,592.02985
2286.00000,607.94318
2288.00000,599.92987
2290.00000,602.05151
2292.00000,612.69745
2294.00000,633.01935
2296.00000,641.59399
2298.00000,619.36823
2300.00000,594.11639
2302.00000,616.57349
2304.00000,603.80170
2306.00000,554.93829
2308.00000,587.97266
2310.00000,626.99194
2312.00000,629.01489
2314.00000,647.39789
2316.00000,704.67694
2318.00000,692.57898
2320.00000,681.17047
2322.00000,702.82764
2324.00000,729.11761
2326.00000,740.07440
2328.00000,742.79083
2330.00000,739.73492
2332.00000,718.34143
2334.00000,691.86725
2336.00000,726.09540
2338.00000,759.30316
2340.00000,725.70343
2342.00000,672.86200
2344.00000,717.40955
2346.00000,765.39880
2348.00000,731.54773
2350.00000,694.16559
2352.00000,770.34283
2354.00000,816.22644
2356.00000,766.58423
2358.00000,765.97821
2360.00000,857.16846
2362.00000,784.56592
2364.00000,758.13416
2366.00000,786.99237
2368.00000,769.42230
2370.00000,736.53546
2372.00000,746.46027
2374.00000,734.86267
2376.00000,749.65411
2378.00000,822.07263
2380.00000,741.48175
2382.00000,764.29138
2384.00000,820.16040
2386.00000,745.40961
2388.00000,708.61658
2390.00000,804.00232
2392.00000,813.09497
2394.00000,749.09497
2396.00000,839.08118
2398.00000,899.27222
2400.00000,837.92188
2402.00000,794.09137
2404.00000,837.97198
2406.00000,792.07916
2408.00000,802.39673
2410.00000,830.31555
2412.00000,787.84143
2414.00000,738.60297
2416.00000,779.46014
2418.00000,779.24829
2420.00000,728.46515
2422.00000,719.76373
2424.00000,698.71942
2426.00000,686.89868
2428.00000,693.21521
2430.00000,696.72217
2432.00000,675.04272
2434.00000,628.99847
2436.00000,620.31720
2438.00000,627.91077
2440.00000,600.34589
2442.00000,615.87402
2444.00000,577.98291
2446.00000,536.81317
2448.00000,548.93811
2450.00000,497.95551
2452.00000,455.28564
2454.00000,515.71301
2456.00000,578.05359
2458.00000,502.97122
2460.00000,515.10120
2462.00000,560.80890
2464.00000,523.57214
2466.00000,449.47122
2468.00000,502.09848
2470.00000,553.10760
2472.00000,528.36145
2474.00000,502.15662
2476.00000,554.63757
2478.00000,561.17401
2480.00000,526.49109
2482.00000,527.46375
2484.00000,549.70197
2486.00000,478.49957
2488.00000,545.30457
2490.00000,619.11865
2492.00000,527.77191
2494.00000,484.73181
2496.00000,591.60516
2498.00000,594.63501
2500.00000,506.23587
2502.00000,578.42523
2504.00000,616.06470
2506.00000,608.01703
2508.00000,593.89703
2510.00000,605.13904
2512.00000,659.24329
2514.00000,618.91998
2516.00000,569.31604
2518.00000,589.91150
2520.00000,593.19373
2522.00000,549.46820
2524.00000,543.30957
2526.00000,586.43195
2528.00000,614.98053
2530.00000,622.01581
2532.00000,640.07281
2534.00000,618.05487
2536.00000,568.64789
2538.00000,602.23883
2540.00000,627.95892
2542.00000,596.06287
2544.00000,580.45526
2546.00000,629.88263
2548.00000,602.82648
2550.00000,572.10907
2552.00000,607.02301
2554.00000,632.62054
2556.00000,532.00946
2558.00000,476.15213
2560.00000,500.97125
2562.00000,507.51923
2564.00000,451.00449
2566.00000,472.22287
2568.00000,565.42175
2570.00000,562.05371
2572.00000,454.89047
2574.00000,527.22620
2576.00000,563.62280
2578.00000,490.75851
2580.00000,453.99420
2582.00000,549.49066
2584.00000,583.57440
2586.00000,528.66943
2588.00000,511.24698
2590.00000,586.23975
2592.00000,597.99243
2594.00000,580.49188
2596.00000,561.50897
2598.00000,547.74268
2600.00000,556.30310
2602.00000,529.78418
2604.00000,554.86707
2606.00000,566.81555
2608.00000,479.22443
2610.00000,585.79486
2612.00000,576.15198
2614.00000,484.21860
2616.00000,513.47784
2618.00000,486.49274
2620.00000,461.07132
2622.00000,477.69424
2624.00000,499.81784
2626.00000,476.05746
2628.00000,425.63483
2630.00000,458.43060
2632.00000,480.84109
2634.00000,420.81699
2636.00000,512.65552
2638.00000,527.48175
2640.00000,439.55615
2642.00000,403.09003
2644.00000,445.40552
2646.00000,407.36023
2648.00000,384.49915
2650.00000,393.94376
2652.00000,347.11420
2654.00000,344.45514
2656.00000,353.35333
2658.00000,373.42102
2660.00000,381.62057
2662.00000,306.31641
2664.00000,320.26294
2666.00000,389.65958
2668.00000,334.64157
2670.00000,179.95721
2672.00000,318.57574
2674.00000,325.88101
2676.00000,217.46873
2678.00000,312.42902
2680.00000,363.83658
2682.00000,165.07751
2684.00000,173.60069
2686.00000,426.84561
2688.00000,322.14188
2690.00000,242.45921
2692.00000,330.44373
2694.00000,391.22046
2696.00000,280.38922
2698.00000,207.04201
2700.00000,239.46761
2702.00000,285.68274
2704.00000,265.93741
2706.00000,234.30823
2708.00000,271.52448
2710.00000,292.69009
2712.00000,287.79834
2714.00000,327.42487
2716.00000,314.56952
2718.00000,271.14700
2720.00000,277.47675
2722.00000,307.90256
2724.00000,246.85918
2726.00000,282.62607
2728.00000,285.25412
2730.00000,208.34111
2732.00000,233.73647
2734.00000,232.72054
2736.00000,226.52412
2738.00000,259.74170
2740.00000,259.29810
2742.00000,138.14871
2744.00000,222.00067
2746.00000,248.95285
2748.00000,104.90925
2750.00000,214.19368
2752.00000,273.39838
2754.00000,187.81174
2756.00000,147.84698
2758.00000,259.92233
2760.00000,247.54277
2762.00000,77.87741
2764.00000,112.74870
2766.00000,311.40103
2768.00000,89.23810
2770.00000,109.46402
2772.00000,268.38504
2774.00000,193.21265
2776.00000,29.94861
2778.00000,229.08357
2780.00000,207.26825
2782.00000,72.99037
2784.00000,270.20529
2786.00000,341.08728
2788.00000,94.38744
2790.00000,61.17308
2792.00000,270.55508
2794.00000,110.94912
2796.00000,130.83234
2798.00000,249.04691
2800.00000,212.57446
2802.00000,94.57813
2804.00000,171.09158
2806.00000,273.14389
2808.00000,164.60681
2810.00000,23.54754
2812.00000,225.13040
2814.00000,217.93069
2816.00000,135.82457
2818.00000,181.39456
2820.00000,205.32834
2822.00000,147.72791
2824.00000,136.66434
2826.00000,107.17213
2828.00000,-1.43688
2830.00000,-6.80218
2832.00000,6.37190
2834.00000,-8.69742
2836.00000,8.80398
2838.00000,81.97314
2840.00000,37.55030
2842.00000,-25.79015
2844.00000,29.18564
2846.00000,127.75813
2848.00000,66.73170
2850.00000,143.23688
2852.00000,155.11749
2854.00000,24.76117
2856.00000,148.33929
2858.00000,260.18198
2860.00000,215.04190
2862.00000,146.25316
2864.00000,180.64247
2866.00000,165.72346
2868.00000,244.32858
2870.00000,236.24634
2872.00000,92.23344
2874.00000,205.67792
2876.00000,262.67831
2878.00000,203.51343
2880.00000,185.64854
2882.00000,250.27434
2884.00000,219.80115
2886.00000,225.25877
2888.00000,256.25830
2890.00000,224.26701
2892.00000,251.51508
2894.00000,340.66852
2896.00000,318.32312
2898.00000,260.80966
2900.00000,417.27441
2902.00000,437.14566
2904.00000,370.67130
2906.00000,432.01859
2908.00000,517.40900
2910.00000,258.05823
2912.00000,370.81735
2914.00000,429.35303
2916.00000,168.07915
2918.00000,434.53137
2920.00000,546.64648
2922.00000,391.00272
2924.00000,350.15207
2926.00000,529.93817
2928.00000,451.84073
2930.00000,475.50803
2932.00000,563.94812
2934.00000,510.56461
2936.00000,566.13757
2938.00000,520.62073
2940.00000,474.62079
2942.00000,526.74805
2944.00000,514.81964
2946.00000,379.95038
2948.00000,370.69946
2950.00000,441.44339
2952.00000,365.42734
2954.00000,251.20328
2956.00000,291.51880
2958.00000,318.80869
2960.00000,212.08723
2962.00000,177.83562
2964.00000,257.64389
2966.00000,242.51195
2968.00000,212.94717
2970.00000,304.72223
2972.00000,150.46144
2974.00000,127.27285
2976.00000,205.51889
2978.00000,163.35254
2980.00000,167.49577
2982.00000,250.65620
2984.00000,246.87877
2986.00000,190.82968
2988.00000,258.90219
2990.00000,244.94859
2992.00000,76.50520
2994.00000,62.90907
2996.00000,236.87193
2998.00000,49.10024
3000.00000,90.79282
3002.00000,140.60201
3004.00000,-8.57905
3006.00000,37.89001
3008.00000,70.54128
3010.00000,39.74997
3012.00000,20.27490
3014.00000,29.00168
3016.00000,-0.33262
3018.00000,49.17089
3020.00000,70.81714
3022.00000,-3.46748
3024.00000,-3.60696
3026.00000,1.91318
3028.00000,0.79909
3030.00000,-2.05903
3032.00000,-0.12628
3034.00000,58.83533
3036.00000,41.16321
3038.00000,-3.22057
3040.00000,56.49770
3042.00000,146.58237
3044.00000,106.53929
3046.00000,93.06290
3048.00000,166.75214
3050.00000,163.50591
3052.00000,168.77615
3054.00000,242.01486
3056.00000,295.71909
3058.00000,292.89932
3060.00000,387.82651
3062.00000,398.32855
3064.00000,350.97287
3066.00000,281.46252
3068.00000,129.18495
3070.00000,169.50185
3072.00000,120.02747
3074.00000,26.33957
3076.00000,126.65659
3078.00000,18.61584
3080.00000,87.28062
3082.00000,174.79797
3084.00000,37.82905
3086.00000,17.65827
3088.00000,-17.84696
3090.00000,78.52559
3092.00000,194.45419
3094.00000,72.64315
3096.00000,157.95401
3098.00000,122.79101
3100.00000,81.30643
3102.00000,216.31740
3104.00000,45.44997
3106.00000,11.42127
3108.00000,52.57640
3110.00000,25.47901
3112.00000,84.75852
3114.00000,61.39983
3116.00000,225.12379
3118.00000,325.81403
3120.00000,68.41166
3122.00000,127.55556
3124.00000,227.74208
3126.00000,185.46681
3128.00000,132.94078
3130.00000,175.37158
3132.00000,149.00162
3134.00000,39.50980
3136.00000,89.76175
3138.00000,300.58575
3140.00000,67.81153
3142.00000,185.20471
3144.00000,334.15665
3146.00000,55.55264
3148.00000,192.59460
3150.00000,241.17966
3152.00000,320.29654
3154.00000,384.02139
3156.00000,123.79237
3158.00000,342.12433
3160.00000,387.50232
3162.00000,210.02786
3164.00000,295.24005
3166.00000,294.96136
3168.00000,266.43497
3170.00000,226.32555
3172.00000,195.16548
3174.00000,240.94711
3176.00000,188.75946
3178.00000,193.51932
3180.00000,172.73354
3182.00000,31.18967
3184.00000,241.08502
3186.00000,317.96515
3188.00000,113.53568
3190.00000,60.74441
3192.00000,382.60245
3194.00000,212.82809
3196.00000,172.44749
3198.00000,415.74966
3200.00000,199.25412
