300.00000,7.17715
302.00000,10.58796
304.00000,17.77930
306.00000,22.05251
308.00000,25.06021
310.00000,32.60468
312.00000,44.79465
314.00000,53.12211
316.00000,53.53294
318.00000,53.24376
320.00000,58.85231
322.00000,62.47214
324.00000,56.81385
326.00000,49.48018
328.00000,49.84757
330.00000,56.70583
332.00000,61.39949
334.00000,54.39540
336.00000,39.92856
338.00000,33.90811
340.00000,44.53390
342.00000,50.28473
344.00000,51.35157
346.00000,59.71971
348.00000,77.42133
350.00000,96.32092
352.00000,116.23383
354.00000,126.84708
356.00000,120.50681
358.00000,111.64654
360.00000,110.60371
362.00000,109.20184
364.00000,96.51699
366.00000,74.53704
368.00000,56.02489
370.00000,41.42720
372.00000,39.92018
374.00000,48.91172
376.00000,42.43738
378.00000,39.76191
380.00000,43.05495
382.00000,48.80776
384.00000,59.29240
386.00000,68.15925
388.00000,81.66162
390.00000,100.26275
392.00000,123.35075
394.00000,157.61803
396.00000,195.99529
398.00000,232.28400
400.00000,273.24475
402.00000,328.59094
404.00000,390.25925
406.00000,460.63266
408.00000,532.71002
410.00000,602.03772
412.00000,683.75446
414.00000,789.85773
416.00000,914.14630
418.00000,1045.23938
420.00000,1182.57959
422.00000,1338.72913
424.00000,1512.25818
426.00000,1697.73987
428.00000,1893.50513
430.00000,2100.52979
432.00000,2315.26733
434.00000,2538.55225
436.00000,2753.84839
438.00000,2943.76367
440.00000,3126.79590
442.00000,3286.08252
444.00000,3396.66406
446.00000,3447.66260
448.00000,3439.42871
450.00000,3361.26660
452.00000,3218.58911
454.00000,3016.44873
456.00000,2763.43091
458.00000,2493.18237
460.00000,2226.53125
462.00000,1955.77271
464.00000,1681.21460
466.00000,1431.02173
468.00000,1211.78564
470.00000,1024.94080
472.00000,855.99908
474.00000,693.97815
476.00000,561.57416
478.00000,455.96295
480.00000,368.84866
482.00000,300.64529
484.00000,251.02487
486.00000,197.14519
488.00000,157.04347
490.00000,134.93716
492.00000,109.81572
494.00000,81.67603
496.00000,71.10130
498.00000,63.07080
500.00000,44.20454
502.00000,35.46212
504.00000,39.98006
506.00000,32.21329
508.00000,16.40142
510.00000,18.11216
512.00000,28.52804
514.00000,32.88146
516.00000,24.58341
518.00000,16.63813
520.00000,26.24458
522.00000,31.89991
524.00000,29.02107
526.00000,23.73068
528.00000,19.21143
530.00000,13.92255
532.00000,11.49711
534.00000,14.60772
536.00000,17.85056
538.00000,14.63487
540.00000,17.44197
542.00000,32.17587
544.00000,47.34733
546.00000,55.10596
548.00000,70.19118
550.00000,84.09203
552.00000,100.45655
554.00000,126.12255
556.00000,152.31233
558.00000,165.33685
560.00000,200.45654
562.00000,257.72458
564.00000,304.85266
566.00000,343.08633
568.00000,390.65915
570.00000,449.85577
572.00000,519.10168
574.00000,603.57965
576.00000,697.89160
578.00000,778.95264
580.00000,859.62799
582.00000,969.45337
584.00000,1099.31006
586.00000,1223.89832
588.00000,1346.34985
590.00000,1482.77808
592.00000,1642.01965
594.00000,1824.51355
596.00000,1994.73926
598.00000,2149.36157
600.00000,2310.24707
602.00000,2469.23633
604.00000,2590.68848
606.00000,2680.56226
608.00000,2742.91968
610.00000,2757.30371
612.00000,2729.40234
614.00000,2677.92285
616.00000,2593.93140
618.00000,2466.67065
620.00000,2314.44409
622.00000,2122.53101
624.00000,1903.09265
626.00000,1670.62988
628.00000,1440.48181
630.00000,1262.97388
632.00000,1103.24609
634.00000,949.99811
636.00000,825.36023
638.00000,725.01947
640.00000,623.75983
642.00000,554.19934
644.00000,510.82727
646.00000,439.28442
648.00000,362.13876
650.00000,316.06714
652.00000,285.19223
654.00000,244.16954
656.00000,209.70137
658.00000,172.36707
660.00000,144.47118
662.00000,135.13974
664.00000,134.11334
666.00000,132.78377
668.00000,125.76200
670.00000,116.92085
672.00000,114.90605
674.00000,121.52734
676.00000,124.37894
678.00000,123.16117
680.00000,116.55761
682.00000,102.11455
684.00000,92.64523
686.00000,85.24886
688.00000,81.45914
690.00000,83.42611
692.00000,82.96132
694.00000,75.24992
696.00000,72.07782
698.00000,74.34089
700.00000,71.89244
702.00000,72.12203
704.00000,77.84013
706.00000,81.83259
708.00000,74.95998
710.00000,61.72222
712.00000,67.74934
714.00000,73.45431
716.00000,60.78351
718.00000,41.13438
720.00000,30.05856
722.00000,26.24150
724.00000,20.43686
726.00000,13.49977
728.00000,17.89743
730.00000,27.22844
732.00000,20.33876
734.00000,6.33459
736.00000,10.49544
738.00000,20.15173
740.00000,27.04905
742.00000,24.95396
744.00000,22.01751
746.00000,31.50260
748.00000,24.45456
750.00000,18.16352
752.00000,21.58409
754.00000,23.96783
756.00000,32.60833
758.00000,23.48497
760.00000,17.36937
762.00000,30.73662
764.00000,34.07138
766.00000,28.32751
768.00000,21.83451
770.00000,17.23065
772.00000,15.62337
774.00000,22.28672
776.00000,25.55108
778.00000,25.87784
780.00000,35.82427
782.00000,52.45957
784.00000,35.80315
786.00000,20.62258
788.00000,20.24947
790.00000,17.96424
792.00000,30.14352
794.00000,32.91771
796.00000,33.63141
798.00000,46.95491
800.00000,60.81931
802.00000,63.37290
804.00000,47.84776
806.00000,26.01853
808.00000,13.61576
810.00000,7.59155
812.00000,10.68461
814.00000,17.50780
816.00000,16.10251
818.00000,9.45053
820.00000,30.65139
822.00000,41.65662
824.00000,36.31479
826.00000,42.54501
828.00000,49.92557
830.00000,52.19389
832.00000,45.34012
834.00000,34.87420
836.00000,35.82648
838.00000,52.40205
840.00000,60.75713
842.00000,54.00642
844.00000,49.14297
846.00000,55.77417
848.00000,52.93737
850.00000,34.19160
852.00000,19.76962
854.00000,26.61007
856.00000,27.23275
858.00000,32.91311
860.00000,34.47621
862.00000,19.36037
864.00000,16.87162
866.00000,23.98223
868.00000,21.84254
870.00000,14.74166
872.00000,21.06470
874.00000,21.79295
876.00000,35.87881
878.00000,41.65042
880.00000,21.28283
882.00000,22.90580
884.00000,23.26228
886.00000,14.88311
888.00000,13.38361
890.00000,26.53025
892.00000,35.42928
894.00000,35.97557
896.00000,30.16258
898.00000,28.99283
900.00000,47.57863
902.00000,59.15153
904.00000,51.73446
906.00000,43.12345
908.00000,52.63454
910.00000,60.39191
912.00000,51.92305
914.00000,37.90942
916.00000,30.24896
918.00000,21.89611
920.00000,22.97653
922.00000,30.75320
924.00000,28.36697
926.00000,11.74597
928.00000,11.22051
930.00000,14.99504
932.00000,15.49619
934.00000,14.66054
936.00000,9.43664
938.00000,11.71542
940.00000,20.93945
942.00000,22.93675
944.00000,13.91101
946.00000,18.47323
948.00000,20.56901
950.00000,22.32241
952.00000,29.33981
954.00000,24.21846
956.00000,20.96903
958.00000,33.29632
960.00000,38.73816
962.00000,16.49056
964.00000,13.29140
966.00000,22.47394
968.00000,29.38314
970.00000,30.24253
972.00000,27.47227
974.00000,33.87701
976.00000,45.51300
978.00000,55.71202
980.00000,66.13206
982.00000,81.99706
984.00000,107.47182
986.00000,134.07523
988.00000,158.91040
990.00000,198.92401
992.00000,269.24954
994.00000,386.03287
996.00000,546.03790
998.00000,727.65009
1000.00000,890.30463
1002.00000,896.76642
1004.00000,753.30444
1006.00000,552.74164
1008.00000,351.63303
1010.00000,223.90392
1012.00000,159.04158
1014.00000,120.40943
1016.00000,98.53085
1018.00000,103.02242
1020.00000,115.13676
1022.00000,130.88426
1024.00000,154.94257
1026.00000,187.56044
1028.00000,239.53732
1030.00000,272.52234
1032.00000,268.67868
1034.00000,244.19104
1036.00000,203.86139
1038.00000,166.21292
1040.00000,126.74781
1042.00000,90.08113
1044.00000,82.36434
1046.00000,85.84435
1048.00000,80.79983
1050.00000,72.86788
1052.00000,74.46902
1054.00000,74.97518
1056.00000,80.78913
1058.00000,95.43549
1060.00000,114.55043
1062.00000,129.52158
1064.00000,132.18307
1066.00000,136.61351
1068.00000,136.75195
1070.00000,123.35189
1072.00000,123.68158
1074.00000,131.58147
1076.00000,142.16133
1078.00000,160.24918
1080.00000,200.29742
1082.00000,284.58246
1084.00000,368.54053
1086.00000,404.64020
1088.00000,385.03387
1090.00000,329.69110
1092.00000,247.06570
1094.00000,180.44968
1096.00000,153.41760
1098.00000,138.35162
1100.00000,117.85114
1102.00000,92.03150
1104.00000,75.02578
1106.00000,70.11148
1108.00000,56.69170
1110.00000,44.71391
1112.00000,44.45835
1114.00000,49.23685
1116.00000,44.25439
1118.00000,32.93486
1120.00000,25.64667
1122.00000,24.35683
1124.00000,25.22461
1126.00000,25.28291
1128.00000,11.08448
1130.00000,-0.04275
1132.00000,1.33594
1134.00000,5.89406
1136.00000,28.02016
1138.00000,22.29479
1140.00000,6.93050
1142.00000,15.70704
1144.00000,7.48687
1146.00000,19.30202
1148.00000,53.38701
1150.00000,89.51150
1152.00000,119.80575
1154.00000,142.93791
1156.00000,168.50285
1158.00000,187.80109
1160.00000,176.75540
1162.00000,133.49698
1164.00000,116.33043
1166.00000,114.11167
1168.00000,103.66553
1170.00000,95.81516
1172.00000,92.16039
1174.00000,98.04102
1176.00000,106.84617
1178.00000,119.23761
1180.00000,146.21426
1182.00000,139.38133
1184.00000,124.09986
1186.00000,119.98965
1188.00000,106.13065
1190.00000,101.21696
1192.00000,111.93530
1194.00000,117.43660
1196.00000,115.59600
1198.00000,135.23802
1200.00000,129.34511
1202.00000,109.21090
1204.00000,96.49712
1206.00000,81.35466
1208.00000,59.23168
1210.00000,49.31642
1212.00000,36.18971
1214.00000,12.53621
1216.00000,13.33071
1218.00000,13.01531
1220.00000,6.64831
1222.00000,9.02186
1224.00000,20.60325
1226.00000,14.71686
1228.00000,11.56188
1230.00000,15.84199
1232.00000,19.52853
1234.00000,28.05784
1236.00000,38.66235
1238.00000,55.57331
1240.00000,82.36724
1242.00000,112.88081
1244.00000,134.28773
1246.00000,149.93187
1248.00000,178.61642
1250.00000,210.31412
1252.00000,218.43877
1254.00000,280.85449
1256.00000,397.70624
1258.00000,495.98282
1260.00000,548.30072
1262.00000,632.42474
1264.00000,625.35651
1266.00000,531.46069
1268.00000,427.10672
1270.00000,311.96777
1272.00000,222.12148
1274.00000,162.10048
1276.00000,118.83276
1278.00000,89.96977
1280.00000,83.24815
1282.00000,66.46832
1284.00000,56.17847
1286.00000,72.54412
1288.00000,91.81815
1290.00000,115.69921
1292.00000,141.57312
1294.00000,164.86456
1296.00000,190.10625
1298.00000,224.60559
1300.00000,231.92006
1302.00000,218.38091
1304.00000,219.52672
1306.00000,240.29715
1308.00000,240.55014
1310.00000,277.38593
1312.00000,346.48926
1314.00000,402.87125
1316.00000,506.59436
1318.00000,658.51965
1320.00000,812.01935
1322.00000,943.50073
1324.00000,1061.97534
1326.00000,1127.05615
1328.00000,1156.60828
1330.00000,1149.78992
1332.00000,1101.44946
1334.00000,1057.54639
1336.00000,967.30798
1338.00000,835.52344
1340.00000,707.27545
1342.00000,608.54431
1344.00000,553.06274
1346.00000,525.68359
1348.00000,527.36914
1350.00000,557.39136
1352.00000,561.91418
1354.00000,480.09982
1356.00000,390.95447
1358.00000,337.79248
1360.00000,254.15147
1362.00000,186.99480
1364.00000,164.44751
1366.00000,139.10968
1368.00000,84.70766
1370.00000,73.28596
1372.00000,53.35842
1374.00000,36.79028
1376.00000,40.51497
1378.00000,29.40349
1380.00000,9.53286
1382.00000,9.02607
1384.00000,26.27269
1386.00000,28.95878
1388.00000,10.13133
1390.00000,51.57496
1392.00000,87.72797
1394.00000,85.78725
1396.00000,125.46957
1398.00000,173.53473
1400.00000,206.95781
1402.00000,217.60608
1404.00000,211.95518
1406.00000,203.74672
1408.00000,164.32426
1410.00000,136.86150
1412.00000,115.02199
1414.00000,52.09084
1416.00000,52.10399
1418.00000,53.16434
1420.00000,35.57464
1422.00000,40.37648
1424.00000,51.79108
1426.00000,44.19866
1428.00000,51.01788
1430.00000,73.72996
1432.00000,77.67958
1434.00000,108.19976
1436.00000,141.41551
1438.00000,161.42909
1440.00000,177.54965
1442.00000,193.47194
1444.00000,217.26959
1446.00000,226.38368
1448.00000,223.98343
1450.00000,237.65665
1452.00000,242.71782
1454.00000,230.81528
1456.00000,217.09187
1458.00000,205.62083
1460.00000,177.48532
1462.00000,154.76195
1464.00000,134.37859
1466.00000,123.63244
1468.00000,128.12579
1470.00000,99.24418
1472.00000,96.04112
1474.00000,92.00089
1476.00000,65.38331
1478.00000,95.09581
1480.00000,95.77921
1482.00000,103.93221
1484.00000,136.98492
1486.00000,147.24181
1488.00000,169.02548
1490.00000,175.91837
1492.00000,181.80209
1494.00000,196.49976
1496.00000,183.06076
1498.00000,198.12439
1500.00000,225.49741
1502.00000,236.14323
1504.00000,227.84550
1506.00000,199.67162
1508.00000,235.81145
1510.00000,255.82846
1512.00000,199.15256
1514.00000,180.15465
1516.00000,140.74582
1518.00000,97.89104
1520.00000,79.95515
1522.00000,69.55357
1524.00000,50.14231
1526.00000,22.32783
1528.00000,9.58862
1530.00000,16.69208
1532.00000,14.61378
1534.00000,8.83567
1536.00000,14.70362
1538.00000,24.14290
1540.00000,23.85442
1542.00000,35.06737
1544.00000,55.34963
1546.00000,57.13384
1548.00000,41.08848
1550.00000,43.73433
1552.00000,45.75815
1554.00000,47.62880
1556.00000,44.41019
1558.00000,35.14521
1560.00000,45.47918
1562.00000,18.95563
1564.00000,6.32892
1566.00000,44.32793
1568.00000,61.11578
1570.00000,77.49313
1572.00000,118.72791
1574.00000,164.14749
1576.00000,192.13617
1578.00000,245.89000
1580.00000,338.60706
1582.00000,426.94385
1584.00000,497.06323
1586.00000,590.79919
1588.00000,685.49146
1590.00000,765.76514
1592.00000,818.41931
1594.00000,834.07489
1596.00000,825.70343
1598.00000,817.81317
1600.00000,796.95947
1602.00000,734.10541
1604.00000,629.75287
1606.00000,524.87109
1608.00000,420.71896
1610.00000,313.75772
1612.00000,221.91527
1614.00000,167.13460
1616.00000,128.09441
1618.00000,107.36621
1620.00000,95.14534
1622.00000,64.22916
1624.00000,51.12841
1626.00000,41.68851
1628.00000,39.28789
1630.00000,46.30267
1632.00000,23.47419
1634.00000,38.36810
1636.00000,51.45063
1638.00000,37.96528
1640.00000,45.75545
1642.00000,18.41257
1644.00000,26.95531
1646.00000,40.90002
1648.00000,8.13671
1650.00000,30.20567
1652.00000,23.38631
1654.00000,32.59500
1656.00000,61.95390
1658.00000,37.75172
1660.00000,94.17694
1662.00000,83.89501
1664.00000,57.30106
1666.00000,121.39766
1668.00000,97.80006
1670.00000,97.56269
1672.00000,83.10368
1674.00000,43.74550
1676.00000,65.50431
1678.00000,39.44260
1680.00000,24.98191
1682.00000,43.28426
1684.00000,43.93161
1686.00000,30.90372
1688.00000,60.69786
1690.00000,60.14781
1692.00000,21.54608
1694.00000,34.45001
1696.00000,33.13249
1698.00000,20.06986
1700.00000,34.76891
1702.00000,54.72638
1704.00000,8.40188
1706.00000,10.57355
1708.00000,31.73356
1710.00000,33.87822
1712.00000,43.51702
1714.00000,14.54125
1716.00000,35.70937
1718.00000,59.84189
1720.00000,41.23140
1722.00000,92.71159
1724.00000,78.03967
1726.00000,67.98457
1728.00000,97.13344
1730.00000,79.27170
1732.00000,79.53596
1734.00000,59.20759
1736.00000,46.20325
1738.00000,56.90032
1740.00000,19.52775
1742.00000,48.60543
1744.00000,73.06054
1746.00000,61.30243
1748.00000,70.35932
1750.00000,17.35212
1752.00000,18.84386
1754.00000,62.70663
1756.00000,63.04770
1758.00000,53.99091
1760.00000,71.49744
1762.00000,65.16452
1764.00000,36.12315
1766.00000,33.94545
1768.00000,16.90473
1770.00000,27.45482
1772.00000,57.17220
1774.00000,61.01032
1776.00000,47.44677
1778.00000,69.03078
1780.00000,41.47971
1782.00000,15.14201
1784.00000,78.35441
1786.00000,28.86456
1788.00000,25.80887
1790.00000,98.43246
1792.00000,116.08207
1794.00000,47.99147
1796.00000,49.30151
1798.00000,55.45792
1800.00000,29.34687
1802.00000,44.37130
1804.00000,81.41544
1806.00000,69.20111
1808.00000,57.31334
1810.00000,84.19435
1812.00000,70.57129
1814.00000,28.82059
1816.00000,38.17485
1818.00000,54.62535
1820.00000,21.58804
1822.00000,75.56867
1824.00000,65.07713
1826.00000,63.39949
1828.00000,102.11352
1830.00000,19.24535
1832.00000,62.16293
1834.00000,51.69891
1836.00000,8.27871
1838.00000,103.71188
1840.00000,85.10886
1842.00000,56.22687
1844.00000,78.19352
1846.00000,88.20608
1848.00000,49.28899
1850.00000,49.77167
1852.00000,63.24466
1854.00000,61.18533
1856.00000,71.50225
1858.00000,104.69714
1860.00000,86.24632
1862.00000,47.10820
1864.00000,44.71600
1866.00000,48.15671
1868.00000,8.42007
1870.00000,36.87925
1872.00000,67.37206
1874.00000,10.15835
1876.00000,63.32911
1878.00000,72.04375
1880.00000,21.86016
1882.00000,8.91576
1884.00000,41.15862
1886.00000,49.92227
1888.00000,53.66006
1890.00000,56.92676
1892.00000,48.10467
1894.00000,56.82640
1896.00000,42.55663
1898.00000,27.54257
1900.00000,42.75897
1902.00000,72.41329
1904.00000,104.12795
1906.00000,71.81743
1908.00000,54.76355
1910.00000,112.02329
1912.00000,80.20171
1914.00000,67.90066
1916.00000,87.90332
1918.00000,87.77466
1920.00000,76.11666
1922.00000,90.76212
1924.00000,99.11481
1926.00000,76.65721
1928.00000,62.98054
1930.00000,101.57829
1932.00000,59.98709
1934.00000,77.50797
1936.00000,140.91895
1938.00000,58.43331
1940.00000,106.53128
1942.00000,76.05950
1944.00000,10.88514
1946.00000,64.49670
1948.00000,29.66387
1950.00000,68.55515
1952.00000,91.89600
1954.00000,35.36126
1956.00000,28.90702
1958.00000,44.33187
1960.00000,46.37726
1962.00000,64.21930
1964.00000,85.11218
1966.00000,27.72162
1968.00000,60.34211
1970.00000,92.33511
1972.00000,54.04344
1974.00000,46.07237
1976.00000,47.96634
1978.00000,55.12447
1980.00000,76.91617
1982.00000,77.38161
1984.00000,15.78976
1986.00000,61.15820
1988.00000,61.05752
1990.00000,-0.27577
1992.00000,55.35785
1994.00000,43.80132
1996.00000,22.55500
1998.00000,17.95102
2000.00000,21.24013
2002.00000,23.01112
2004.00000,18.99434
2006.00000,17.68331
2008.00000,23.39441
2010.00000,23.67525
2012.00000,32.91008
2014.00000,41.05434
2016.00000,27.05927
2018.00000,25.45345
2020.00000,36.35900
2022.00000,38.17677
2024.00000,28.05497
2026.00000,31.68119
2028.00000,39.57310
2030.00000,38.69048
2032.00000,33.30606
2034.00000,35.52020
2036.00000,37.01573
2038.00000,37.92518
2040.00000,30.82233
2042.00000,16.37542
2044.00000,19.83099
2046.00000,31.76217
2048.00000,32.22839
2050.00000,25.26307
2052.00000,31.16067
2054.00000,30.13872
2056.00000,27.53229
2058.00000,33.55389
2060.00000,39.92035
2062.00000,29.24129
2064.00000,27.87481
2066.00000,30.61509
2068.00000,28.49634
2070.00000,39.68883
2072.00000,39.47573
2074.00000,37.04098
2076.00000,33.00161
2078.00000,19.17126
2080.00000,31.83795
2082.00000,41.96180
2084.00000,37.61308
2086.00000,36.04285
2088.00000,40.52675
2090.00000,34.70203
2092.00000,25.72882
2094.00000,29.75424
2096.00000,43.28019
2098.00000,39.58431
2100.00000,28.70929
2102.00000,25.64630
2104.00000,34.73024
2106.00000,52.56879
2108.00000,46.55528
2110.00000,35.23618
2112.00000,38.29614
2114.00000,36.44966
2116.00000,47.15169
2118.00000,61.36430
2120.00000,58.98207
2122.00000,43.25951
2124.00000,44.63451
2126.00000,35.33103
2128.00000,27.74812
2130.00000,46.92884
2132.00000,65.49139
2134.00000,56.95360
2136.00000,50.84990
2138.00000,55.97321
2140.00000,46.22990
2142.00000,45.85558
2144.00000,45.72586
2146.00000,38.36411
2148.00000,39.19482
2150.00000,60.43775
2152.00000,50.32959
2154.00000,35.41898
2156.00000,46.50749
2158.00000,50.16240
2160.00000,36.42326
2162.00000,39.13617
2164.00000,54.68653
2166.00000,48.13853
2168.00000,32.12843
2170.00000,43.75035
2172.00000,53.68233
2174.00000,40.97272
2176.00000,48.03960
2178.00000,47.75937
2180.00000,43.76397
2182.00000,49.17316
2184.00000,53.64561
2186.00000,39.52995
2188.00000,49.74069
2190.00000,56.52329
2192.00000,26.16919
2194.00000,20.03875
2196.00000,35.34475
2198.00000,47.76038
2200.00000,50.94505
2202.00000,50.95926
2204.00000,31.10346
2206.00000,24.98558
2208.00000,41.75905
2210.00000,52.99369
2212.00000,45.88136
2214.00000,41.39759
2216.00000,50.85974
2218.00000,57.06787
2220.00000,41.30038
2222.00000,42.15403
2224.00000,53.18662
2226.00000,55.51245
2228.00000,51.74070
2230.00000,55.85556
2232.00000,59.67899
2234.00000,49.23062
2236.00000,38.30799
2238.00000,58.34812
2240.00000,64.30102
2242.00000,56.90408
2244.00000,56.92955
2246.00000,65.21769
2248.00000,72.27010
2250.00000,64.32401
2252.00000,58.57341
2254.00000,65.30933
2256.00000,49.94546
2258.00000,36.48441
2260.00000,41.59847
2262.00000,57.92619
2264.00000,66.30376
2266.00000,52.94099
2268.00000,39.58308
2270.00000,46.02867
2272.00000,62.19154
2274.00000,58.45652
2276.00000,44.22901
2278.00000,33.67822
2280.00000,31.15222
2282.00000,33.10212
2284.00000,31.46994
2286.00000,26.08767
2288.00000,28.51105
2290.00000,42.20542
2292.00000,40.66577
2294.00000,33.56755
2296.00000,30.06954
2298.00000,28.13118
2300.00000,26.09482
2302.00000,22.73673
2304.00000,36.43591
2306.00000,47.17023
2308.00000,22.84920
2310.00000,37.56910
2312.00000,44.56995
2314.00000,35.13979
2316.00000,43.39744
2318.00000,37.41185
2320.00000,33.58345
2322.00000,27.41806
2324.00000,17.93421
2326.00000,24.99115
2328.00000,23.19775
2330.00000,25.31737
2332.00000,31.03857
2334.00000,24.08694
2336.00000,24.44860
2338.00000,25.43817
2340.00000,14.60401
2342.00000,5.87277
2344.00000,24.17236
2346.00000,17.40794
2348.00000,7.07742
2350.00000,15.92236
2352.00000,23.26065
2354.00000,30.39003
2356.00000,20.41707
2358.00000,18.23036
2360.00000,33.68893
2362.00000,9.92439
2364.00000,15.16494
2366.00000,35.22955
2368.00000,29.37519
2370.00000,17.85739
2372.00000,25.22813
2374.00000,33.35451
2376.00000,29.86600
2378.00000,26.77524
2380.00000,31.90447
2382.00000,23.01259
2384.00000,17.14204
2386.00000,30.95193
2388.00000,36.63395
2390.00000,25.88197
2392.00000,33.99425
2394.00000,50.69065
2396.00000,40.74284
2398.00000,53.27637
2400.00000,53.47532
2402.00000,42.74956
2404.00000,47.22580
2406.00000,45.16499
2408.00000,26.29432
2410.00000,30.22710
2412.00000,57.93547
2414.00000,56.51963
2416.00000,39.73457
2418.00000,46.55864
2420.00000,61.62419
2422.00000,50.65186
2424.00000,39.47033
2426.00000,39.22989
2428.00000,41.13705
2430.00000,35.66127
2432.00000,28.85297
2434.00000,35.33348
2436.00000,33.06085
2438.00000,11.34470
2440.00000,1.64161
2442.00000,38.99621
2444.00000,41.95818
2446.00000,16.55136
2448.00000,20.56203
2450.00000,38.56681
2452.00000,26.58002
2454.00000,33.90315
2456.00000,55.62598
2458.00000,29.16769
2460.00000,29.02825
2462.00000,45.87063
2464.00000,49.07917
2466.00000,38.35443
2468.00000,33.20522
2470.00000,30.05784
2472.00000,36.80358
2474.00000,46.01397
2476.00000,38.27177
2478.00000,46.84314
2480.00000,56.06067
2482.00000,48.20785
2484.00000,32.68919
2486.00000,28.74826
2488.00000,47.88222
2490.00000,40.69197
2492.00000,10.60389
2494.00000,39.37231
2496.00000,42.29954
2498.00000,27.05275
2500.00000,24.56553
2502.00000,22.46802
2504.00000,13.20880
2506.00000,17.84531
2508.00000,22.64708
2510.00000,9.98111
2512.00000,9.50553
2514.00000,34.39272
2516.00000,39.34718
2518.00000,20.71375
2520.00000,27.11597
2522.00000,25.61961
2524.00000,16.98082
2526.00000,18.41220
2528.00000,25.92387
2530.00000,18.46643
2532.00000,42.16287
2534.00000,49.48656
2536.00000,19.96818
2538.00000,31.23870
2540.00000,50.65377
2542.00000,39.94785
2544.00000,29.12951
2546.00000,53.32250
2548.00000,51.40327
2550.00000,56.11857
2552.00000,65.14665
2554.00000,55.59032
2556.00000,44.27341
2558.00000,29.95838
2560.00000,49.37168
2562.00000,63.37092
2564.00000,15.95708
2566.00000,38.47356
2568.00000,41.40958
2570.00000,16.11980
2572.00000,36.08889
2574.00000,60.45360
2576.00000,32.61192
2578.00000,20.00097
2580.00000,51.57959
2582.00000,48.68809
2584.00000,35.89791
2586.00000,53.56912
2588.00000,63.21247
2590.00000,29.94121
2592.00000,41.18639
2594.00000,61.90431
2596.00000,53.91278
2598.00000,37.24774
2600.00000,49.19510
2602.00000,44.39316
2604.00000,46.28386
2606.00000,60.10613
2608.00000,61.73294
2610.00000,84.29000
2612.00000,57.89713
2614.00000,28.19972
2616.00000,50.79107
2618.00000,38.38872
2620.00000,29.66612
2622.00000,40.90595
2624.00000,45.14640
2626.00000,34.64807
2628.00000,64.27431
2630.00000,52.37220
2632.00000,14.13896
2634.00000,32.34452
2636.00000,58.91184
2638.00000,37.65537
2640.00000,37.04661
2642.00000,72.42135
2644.00000,50.87040
2646.00000,61.55499
2648.00000,44.61417
2650.00000,22.36622
2652.00000,66.20060
2654.00000,41.84895
2656.00000,10.04886
2658.00000,37.26121
2660.00000,69.11801
2662.00000,21.71175
2664.00000,58.21546
2666.00000,76.65829
2668.00000,24.67475
2670.00000,25.15509
2672.00000,37.90338
2674.00000,28.34949
2676.00000,16.31334
2678.00000,27.46876
2680.00000,39.68349
2682.00000,39.79985
2684.00000,30.67969
2686.00000,25.72622
2688.00000,31.07209
2690.00000,24.28601
2692.00000,2.04404
2694.00000,7.63222
2696.00000,45.65093
2698.00000,24.03716
2700.00000,46.11395
2702.00000,60.78848
2704.00000,22.06888
2706.00000,39.84755
2708.00000,41.74292
2710.00000,43.83825
2712.00000,49.51842
2714.00000,30.82604
2716.00000,49.32146
2718.00000,69.20895
2720.00000,63.45733
2722.00000,53.69629
2724.00000,63.46818
2726.00000,56.29081
2728.00000,62.22608
2730.00000,85.87952
2732.00000,73.76577
2734.00000,45.31199
2736.00000,60.73553
2738.00000,84.57495
2740.00000,66.79905
2742.00000,71.99861
2744.00000,50.25263
2746.00000,49.72197
2748.00000,70.87120
2750.00000,27.01397
2752.00000,64.54757
2754.00000,94.10406
2756.00000,55.03919
2758.00000,33.75938
2760.00000,65.65962
2762.00000,29.24528
2764.00000,10.95148
2766.00000,72.94257
2768.00000,47.88863
2770.00000,47.43868
2772.00000,57.63008
2774.00000,51.15963
2776.00000,65.98529
2778.00000,69.70723
2780.00000,57.62190
2782.00000,45.16222
2784.00000,39.80077
2786.00000,32.63463
2788.00000,33.28384
2790.00000,33.42088
2792.00000,32.64223
2794.00000,37.82085
2796.00000,12.61911
2798.00000,-4.23018
2800.00000,1.28990
2802.00000,12.00173
2804.00000,41.62210
2806.00000,37.89143
2808.00000,41.71187
2810.00000,56.69537
2812.00000,4.43530
2814.00000,30.81534
2816.00000,59.74630
2818.00000,30.60176
2820.00000,24.62779
2822.00000,72.24451
2824.00000,72.78756
2826.00000,47.75961
2828.00000,56.51820
2830.00000,40.37072
2832.00000,27.52095
2834.00000,65.00192
2836.00000,116.58279
2838.00000,116.80450
2840.00000,149.35583
2842.00000,185.17505
2844.00000,200.32646
2846.00000,231.38615
2848.00000,297.15454
2850.00000,292.81174
2852.00000,331.13919
2854.00000,435.15924
2856.00000,424.86951
2858.00000,464.92694
2860.00000,511.82288
2862.00000,500.23221
2864.00000,482.27820
2866.00000,518.97308
2868.00000,555.96356
2870.00000,563.15356
2872.00000,575.64728
2874.00000,617.58521
2876.00000,588.99854
2878.00000,568.36340
2880.00000,566.87305
2882.00000,510.36752
2884.00000,539.85400
2886.00000,579.64056
2888.00000,598.70459
2890.00000,624.09137
2892.00000,617.13330
2894.00000,632.38568
2896.00000,681.07318
2898.00000,709.72412
2900.00000,704.78986
2902.00000,794.28046
2904.00000,795.26630
2906.00000,762.59100
2908.00000,850.45050
2910.00000,813.49304
2912.00000,783.58685
2914.00000,854.21088
2916.00000,889.06183
2918.00000,768.42303
2920.00000,867.21820
2922.00000,903.71008
2924.00000,808.64313
2926.00000,865.17023
2928.00000,856.52588
2930.00000,827.21625
2932.00000,836.69781
2934.00000,862.33600
2936.00000,864.86139
2938.00000,794.14496
2940.00000,717.45746
2942.00000,690.19086
2944.00000,656.62817
2946.00000,549.71088
2948.00000,530.66321
2950.00000,541.42969
2952.00000,467.93448
2954.00000,490.97906
2956.00000,448.48004
2958.00000,410.21890
2960.00000,422.34015
2962.00000,336.20792
2964.00000,317.49017
2966.00000,371.56445
2968.00000,367.09348
2970.00000,282.90625
2972.00000,311.83749
2974.00000,251.29341
2976.00000,213.60474
2978.00000,267.01352
2980.00000,140.06187
2982.00000,188.03871
2984.00000,215.18861
2986.00000,101.56161
2988.00000,77.36792
2990.00000,75.69658
2992.00000,53.13557
2994.00000,27.00201
2996.00000,26.91139
2998.00000,60.46622
3000.00000,135.80859
3002.00000,105.07348
3004.00000,-6.38236
3006.00000,12.37235
3008.00000,9.95510
3010.00000,11.13674
3012.00000,29.78292
3014.00000,17.52004
3016.00000,2.40088
3018.00000,2.77591
3020.00000,40.91009
3022.00000,90.50684
3024.00000,90.72815
3026.00000,105.25272
3028.00000,132.15411
3030.00000,174.28130
3032.00000,229.51340
3034.00000,214.82988
3036.00000,254.08237
3038.00000,347.64041
3040.00000,373.04114
3042.00000,330.06259
3044.00000,453.68042
3046.00000,505.75922
3048.00000,465.85095
3050.00000,636.73688
3052.00000,701.28558
3054.00000,670.96796
3056.00000,754.47174
3058.00000,900.36255
3060.00000,748.35938
3062.00000,739.57935
3064.00000,791.98413
3066.00000,688.32953
3068.00000,596.57458
3070.00000,530.10748
3072.00000,523.24170
3074.00000,483.28192
3076.00000,370.03778
3078.00000,427.08911
3080.00000,322.14236
3082.00000,179.21884
3084.00000,227.45804
3086.00000,240.89989
3088.00000,240.39085
3090.00000,232.62093
3092.00000,173.17574
3094.00000,88.28233
3096.00000,139.92279
3098.00000,161.01126
3100.00000,137.25261
3102.00000,167.21796
3104.00000,163.06966
3106.00000,70.25002
3108.00000,64.97518
3110.00000,124.36821
3112.00000,59.66203
3114.00000,212.89410
3116.00000,241.99358
3118.00000,113.49404
3120.00000,120.60632
3122.00000,110.64240
3124.00000,81.21035
3126.00000,93.16714
3128.00000,145.77347
3130.00000,156.68893
3132.00000,87.83241
3134.00000,61.57727
3136.00000,42.58338
3138.00000,-9.50903
3140.00000,200.02902
3142.00000,136.71558
3144.00000,5.68535
3146.00000,132.81792
3148.00000,30.35925
3150.00000,0.86048
3152.00000,94.81631
3154.00000,114.27941
3156.00000,22.79714
3158.00000,108.39474
3160.00000,182.57823
3162.00000,76.08798
3164.00000,-2.48818
3166.00000,241.42899
3168.00000,158.27856
3170.00000,64.67168
3172.00000,212.52486
3174.00000,82.64500
3176.00000,13.45509
3178.00000,81.62141
3180.00000,107.88273
3182.00000,54.02290
3184.00000,170.43056
3186.00000,146.64223
3188.00000,18.44648
3190.00000,49.17735
3192.00000,176.02815
3194.00000,64.07868
3196.00000,29.71152
3198.00000,171.78625
3200.00000,152.38365
