300.00000,90.73579
302.00000,82.27045
304.00000,60.34548
306.00000,39.17255
308.00000,27.83466
310.00000,27.11158
312.00000,32.81781
314.00000,35.49322
316.00000,39.35953
318.00000,39.87677
320.00000,28.75343
322.00000,13.34579
324.00000,4.23386
326.00000,11.55978
328.00000,31.90112
330.00000,44.36036
332.00000,31.62023
334.00000,24.56801
336.00000,32.95089
338.00000,39.35863
340.00000,38.78142
342.00000,39.40690
344.00000,52.68065
346.00000,62.83224
348.00000,49.21608
350.00000,48.78370
352.00000,46.56211
354.00000,42.79157
356.00000,45.76535
358.00000,37.44173
360.00000,38.13414
362.00000,41.86607
364.00000,36.26631
366.00000,27.25109
368.00000,25.94333
370.00000,31.96988
372.00000,32.13203
374.00000,22.58484
376.00000,19.02295
378.00000,15.50907
380.00000,12.11662
382.00000,14.09441
384.00000,23.46238
386.00000,37.22342
388.00000,51.58509
390.00000,55.74615
392.00000,46.37052
394.00000,37.31159
396.00000,31.55679
398.00000,28.88806
400.00000,29.61250
402.00000,35.33307
404.00000,46.16526
406.00000,49.29952
408.00000,49.66232
410.00000,58.41667
412.00000,70.09840
414.00000,77.80644
416.00000,85.84480
418.00000,102.71214
420.00000,126.64643
422.00000,138.52838
424.00000,130.12621
426.00000,107.15034
428.00000,91.55301
430.00000,106.04494
432.00000,129.50104
434.00000,139.83089
436.00000,135.19019
438.00000,134.01599
440.00000,154.01376
442.00000,169.28354
444.00000,159.74847
446.00000,138.97203
448.00000,135.51501
450.00000,136.45659
452.00000,140.07440
454.00000,134.20151
456.00000,109.51863
458.00000,96.90652
460.00000,85.88232
462.00000,66.60728
464.00000,44.43433
466.00000,34.30072
468.00000,55.09424
470.00000,81.68050
472.00000,106.07204
474.00000,160.85123
476.00000,285.57794
478.00000,514.52106
480.00000,782.58936
482.00000,976.64172
484.00000,1015.02032
486.00000,856.74457
488.00000,611.48938
490.00000,405.70676
492.00000,282.57217
494.00000,210.73044
496.00000,155.52264
498.00000,116.11884
500.00000,96.48282
502.00000,82.05914
504.00000,68.67012
506.00000,48.00027
508.00000,35.70284
510.00000,46.30573
512.00000,46.84547
514.00000,24.74797
516.00000,16.20968
518.00000,35.13189
520.00000,43.37370
522.00000,40.03606
524.00000,32.18039
526.00000,27.69758
528.00000,32.04682
530.00000,39.20877
532.00000,24.32101
534.00000,21.57248
536.00000,42.10499
538.00000,37.18467
540.00000,21.18432
542.00000,21.54697
544.00000,36.42398
546.00000,44.58646
548.00000,40.01192
550.00000,27.97301
552.00000,38.28966
554.00000,61.11386
556.00000,51.50406
558.00000,44.30299
560.00000,32.82405
562.00000,15.48072
564.00000,11.95520
566.00000,27.30308
568.00000,33.99289
570.00000,38.93223
572.00000,58.25981
574.00000,78.57656
576.00000,72.92222
578.00000,83.99776
580.00000,129.37677
582.00000,170.24460
584.00000,174.49741
586.00000,204.22794
588.00000,258.04788
590.00000,303.24924
592.00000,328.04205
594.00000,319.54929
596.00000,300.05334
598.00000,275.40155
600.00000,236.16295
602.00000,190.45567
604.00000,149.03784
606.00000,121.57652
608.00000,111.91693
610.00000,113.51131
612.00000,110.57456
614.00000,99.27866
616.00000,100.80149
618.00000,121.36814
620.00000,125.35159
622.00000,115.23651
624.00000,97.75418
626.00000,78.75554
628.00000,62.05035
630.00000,43.36348
632.00000,38.89647
634.00000,49.78621
636.00000,56.50159
638.00000,48.27574
640.00000,54.68353
642.00000,54.22293
644.00000,35.69281
646.00000,22.95660
648.00000,12.47940
650.00000,15.43502
652.00000,18.64467
654.00000,10.30163
656.00000,11.92542
658.00000,19.15517
660.00000,20.00707
662.00000,32.94797
664.00000,74.65774
666.00000,96.93820
668.00000,138.89081
670.00000,209.60716
672.00000,332.36545
674.00000,600.65741
676.00000,1006.21332
678.00000,1431.63940
680.00000,1658.38379
682.00000,1523.15796
684.00000,1147.80530
686.00000,768.66119
688.00000,497.01895
690.00000,330.15506
692.00000,249.76662
694.00000,207.83371
696.00000,179.72328
698.00000,164.33435
700.00000,161.31084
702.00000,151.80992
704.00000,118.46149
706.00000,81.61970
708.00000,72.83832
710.00000,85.94208
712.00000,73.98344
714.00000,69.30389
716.00000,87.40224
718.00000,97.52131
720.00000,97.38587
722.00000,81.69854
724.00000,61.32135
726.00000,48.02723
728.00000,42.18906
730.00000,59.75965
732.00000,97.07233
734.00000,153.99585
736.00000,256.05469
738.00000,461.44809
740.00000,868.93323
742.00000,1538.97205
744.00000,2356.14160
746.00000,2965.55713
748.00000,2948.64795
750.00000,2329.38257
752.00000,1480.45215
754.00000,801.59650
756.00000,422.82941
758.00000,241.50723
760.00000,160.42117
762.00000,127.74396
764.00000,110.40495
766.00000,120.85315
768.00000,151.92131
770.00000,190.23209
772.00000,231.38564
774.00000,274.27515
776.00000,306.79196
778.00000,313.24991
780.00000,283.36172
782.00000,230.15172
784.00000,200.13467
786.00000,156.93295
788.00000,93.24924
790.00000,51.69066
792.00000,41.65472
794.00000,34.96966
796.00000,21.80392
798.00000,9.44783
800.00000,2.61858
802.00000,1.23228
804.00000,8.02584
806.00000,11.55892
808.00000,4.38657
810.00000,6.18729
812.00000,9.36957
814.00000,16.09252
816.00000,28.08351
818.00000,37.99894
820.00000,51.20580
822.00000,56.72665
824.00000,87.62925
826.00000,161.42757
828.00000,209.82326
830.00000,261.70447
832.00000,292.64035
834.00000,268.82010
836.00000,222.32185
838.00000,213.50005
840.00000,211.25737
842.00000,216.01079
844.00000,240.40857
846.00000,235.12666
848.00000,236.08104
850.00000,232.71886
852.00000,202.57091
854.00000,158.50987
856.00000,113.55374
858.00000,85.81830
860.00000,80.74963
862.00000,81.17988
864.00000,63.00648
866.00000,44.14217
868.00000,45.34442
870.00000,61.37034
872.00000,67.60362
874.00000,57.06196
876.00000,39.51669
878.00000,38.00535
880.00000,52.85946
882.00000,44.78389
884.00000,14.39334
886.00000,-4.01772
888.00000,1.31319
890.00000,11.59833
892.00000,29.13831
894.00000,35.72533
896.00000,19.36097
898.00000,-0.08245
900.00000,10.27409
902.00000,14.94647
904.00000,5.21525
906.00000,8.51151
908.00000,31.22261
910.00000,16.22982
912.00000,15.07080
914.00000,32.91067
916.00000,31.72428
918.00000,19.49163
920.00000,18.15912
922.00000,33.61134
924.00000,45.63751
926.00000,38.71722
928.00000,41.12545
930.00000,34.84540
932.00000,20.90490
934.00000,17.37034
936.00000,20.62407
938.00000,16.49904
940.00000,14.07001
942.00000,49.66650
944.00000,130.38504
946.00000,193.78371
948.00000,330.78937
950.00000,520.30695
952.00000,654.74451
954.00000,684.32587
956.00000,574.74872
958.00000,399.07581
960.00000,248.88205
962.00000,151.78532
964.00000,78.10529
966.00000,22.16965
968.00000,6.54600
970.00000,20.05499
972.00000,8.70993
974.00000,0.86955
976.00000,-1.42032
978.00000,2.55500
980.00000,19.29770
982.00000,27.74385
984.00000,31.22752
986.00000,31.57245
988.00000,34.48975
990.00000,53.66265
992.00000,76.63770
994.00000,97.25316
996.00000,134.84166
998.00000,204.23708
1000.00000,275.01404
1002.00000,341.09189
1004.00000,381.30896
1006.00000,385.81396
1008.00000,365.37665
1010.00000,282.84158
1012.00000,183.10530
1014.00000,108.98127
1016.00000,55.39758
1018.00000,15.36591
1020.00000,9.56976
1022.00000,20.06697
1024.00000,27.20049
1026.00000,43.04652
1028.00000,54.20979
1030.00000,65.47881
1032.00000,85.00900
1034.00000,104.37812
1036.00000,100.86684
1038.00000,75.64314
1040.00000,59.29942
1042.00000,61.13246
1044.00000,52.18842
1046.00000,33.39882
1048.00000,19.18308
1050.00000,19.63257
1052.00000,32.20141
1054.00000,42.50868
1056.00000,36.13551
1058.00000,43.18746
1060.00000,67.13432
1062.00000,61.12307
1064.00000,44.22012
1066.00000,64.51775
1068.00000,92.52061
1070.00000,82.35044
1072.00000,86.42171
1074.00000,94.83458
1076.00000,99.78110
1078.00000,101.26770
1080.00000,102.22026
1082.00000,130.13528
1084.00000,173.37869
1086.00000,181.34103
1088.00000,149.57640
1090.00000,158.68633
1092.00000,158.47226
1094.00000,162.58928
1096.00000,192.34836
1098.00000,222.91385
1100.00000,284.35706
1102.00000,389.66943
1104.00000,546.31305
1106.00000,718.74420
1108.00000,807.38702
1110.00000,798.15955
1112.00000,681.52332
1114.00000,509.53476
1116.00000,378.15546
1118.00000,272.80457
1120.00000,225.59619
1122.00000,227.07446
1124.00000,251.01201
1126.00000,322.47034
1128.00000,398.04422
1130.00000,471.39944
1132.00000,545.04175
1134.00000,629.22308
1136.00000,813.87836
1138.00000,1120.05273
1140.00000,1471.16785
1142.00000,1735.89539
1144.00000,1786.71887
1146.00000,1537.14380
1148.00000,1120.93030
1150.00000,728.31055
1152.00000,460.00909
1154.00000,348.65466
1156.00000,294.05975
1158.00000,247.04338
1160.00000,209.09915
1162.00000,151.69250
1164.00000,100.07685
1166.00000,73.72786
1168.00000,62.53561
1170.00000,52.15225
1172.00000,60.05059
1174.00000,58.16302
1176.00000,121.56007
1178.00000,284.63672
1180.00000,421.29053
1182.00000,597.07538
1184.00000,726.82202
1186.00000,755.27448
1188.00000,752.71936
1190.00000,734.34906
1192.00000,734.48956
1194.00000,748.74731
1196.00000,735.68475
1198.00000,676.98907
1200.00000,630.02765
1202.00000,618.95654
1204.00000,624.94000
1206.00000,636.07245
1208.00000,679.56555
1210.00000,693.20129
1212.00000,716.77551
1214.00000,763.02509
1216.00000,720.18982
1218.00000,695.67242
1220.00000,629.08331
1222.00000,489.45511
1224.00000,356.28714
1226.00000,233.59375
1228.00000,158.94138
1230.00000,101.77268
1232.00000,37.88562
1234.00000,16.97104
1236.00000,6.40089
1238.00000,-0.44950
1240.00000,0.42136
1242.00000,0.34961
1244.00000,-3.35176
1246.00000,18.36338
1248.00000,27.80480
1250.00000,19.29492
1252.00000,54.22071
1254.00000,28.53752
1256.00000,14.34036
1258.00000,43.57412
1260.00000,51.22579
1262.00000,59.71220
1264.00000,51.87365
1266.00000,41.27826
1268.00000,59.18636
1270.00000,92.23383
1272.00000,73.55344
1274.00000,75.27205
1276.00000,99.20353
1278.00000,84.33175
1280.00000,101.39197
1282.00000,124.08994
1284.00000,140.76198
1286.00000,165.28966
1288.00000,201.07840
1290.00000,252.99315
1292.00000,320.82666
1294.00000,403.39066
1296.00000,495.33627
1298.00000,590.92041
1300.00000,730.78528
1302.00000,920.35956
1304.00000,1101.08228
1306.00000,1198.37317
1308.00000,1210.33130
1310.00000,1096.58594
1312.00000,925.95160
1314.00000,802.63788
1316.00000,694.68018
1318.00000,709.61456
1320.00000,754.14270
1322.00000,761.53497
1324.00000,840.79840
1326.00000,916.96753
1328.00000,996.02551
1330.00000,1200.50586
1332.00000,1587.79688
1334.00000,2058.21460
1336.00000,2821.96924
1338.00000,3736.01074
1340.00000,4410.30127
1342.00000,4556.03174
1344.00000,4082.92188
1346.00000,3128.92700
1348.00000,2090.05273
1350.00000,1332.94531
1352.00000,861.20380
1354.00000,598.35168
1356.00000,457.94318
1358.00000,348.99420
1360.00000,240.77371
1362.00000,244.44086
1364.00000,237.04637
1366.00000,205.58447
1368.00000,232.61264
1370.00000,244.20934
1372.00000,211.12718
1374.00000,192.04024
1376.00000,198.68196
1378.00000,169.46696
1380.00000,132.23524
1382.00000,78.19510
1384.00000,65.67714
1386.00000,96.11932
1388.00000,22.61683
1390.00000,6.79527
1392.00000,53.27392
1394.00000,54.95183
1396.00000,3.11459
1398.00000,18.07687
1400.00000,11.17748
1402.00000,11.68518
1404.00000,65.39435
1406.00000,40.97115
1408.00000,108.04665
1410.00000,130.69347
1412.00000,86.42239
1414.00000,158.69447
1416.00000,131.10188
1418.00000,96.75391
1420.00000,131.61476
1422.00000,163.20180
1424.00000,142.47398
1426.00000,204.49687
1428.00000,240.70505
1430.00000,224.72794
1432.00000,278.60825
1434.00000,264.96060
1436.00000,307.07065
1438.00000,404.90286
1440.00000,491.50189
1442.00000,661.25775
1444.00000,907.73639
1446.00000,1288.35022
1448.00000,1730.96338
1450.00000,2020.30005
1452.00000,2060.80640
1454.00000,1712.46448
1456.00000,1188.42358
1458.00000,782.40393
1460.00000,487.16904
1462.00000,370.97333
1464.00000,271.27875
1466.00000,161.93852
1468.00000,177.03352
1470.00000,168.50452
1472.00000,122.14500
1474.00000,133.43997
1476.00000,187.03531
1478.00000,134.01276
1480.00000,125.16084
1482.00000,142.89261
1484.00000,116.97996
1486.00000,64.93603
1488.00000,30.72453
1490.00000,24.80906
1492.00000,17.13375
1494.00000,14.36601
1496.00000,63.68851
1498.00000,74.53059
1500.00000,71.37691
1502.00000,112.90647
1504.00000,194.10889
1506.00000,264.53448
1508.00000,313.50336
1510.00000,415.22009
1512.00000,593.67761
1514.00000,790.29620
1516.00000,1141.03894
1518.00000,1678.91150
1520.00000,2494.69287
1522.00000,3796.89624
1524.00000,5715.90381
1526.00000,8058.33203
1528.00000,9773.54199
1530.00000,9860.83398
1532.00000,8420.32227
1534.00000,6388.51367
1536.00000,4572.81299
1538.00000,3318.55396
1540.00000,2526.99219
1542.00000,1914.39648
1544.00000,1482.99219
1546.00000,1167.74463
1548.00000,915.18866
1550.00000,776.13580
1552.00000,626.72723
1554.00000,542.99585
1556.00000,469.64200
1558.00000,324.37604
1560.00000,331.10724
1562.00000,259.52890
1564.00000,180.00078
1566.00000,186.59683
1568.00000,119.83894
1570.00000,140.27258
1572.00000,147.87523
1574.00000,130.28456
1576.00000,168.30763
1578.00000,143.26909
1580.00000,146.27350
1582.00000,180.69894
1584.00000,190.36015
1586.00000,190.91086
1588.00000,229.88205
1590.00000,252.54713
1592.00000,229.12717
1594.00000,224.00545
1596.00000,295.30984
1598.00000,265.77411
1600.00000,234.20865
1602.00000,288.16959
1604.00000,292.44815
1606.00000,306.24023
1608.00000,323.71054
1610.00000,332.51416
1612.00000,324.25049
1614.00000,263.45288
1616.00000,226.22356
1618.00000,227.00505
1620.00000,205.82817
1622.00000,138.93924
1624.00000,133.29033
1626.00000,128.40643
1628.00000,92.65132
1630.00000,75.78010
1632.00000,82.37524
1634.00000,41.93409
1636.00000,45.62865
1638.00000,93.97585
1640.00000,47.83105
1642.00000,31.85529
1644.00000,53.76929
1646.00000,65.98907
1648.00000,42.73610
1650.00000,1.60255
1652.00000,28.37141
1654.00000,65.90961
1656.00000,43.36261
1658.00000,21.11173
1660.00000,100.64116
1662.00000,98.91043
1664.00000,45.16450
1666.00000,60.12809
1668.00000,22.61933
1670.00000,52.71981
1672.00000,62.90858
1674.00000,16.07759
1676.00000,38.16800
1678.00000,58.03079
1680.00000,49.49890
1682.00000,45.55919
1684.00000,63.83542
1686.00000,58.96775
1688.00000,12.42286
1690.00000,49.00801
1692.00000,98.11515
1694.00000,4.09185
1696.00000,70.16299
1698.00000,83.88628
1700.00000,47.24865
1702.00000,93.39890
1704.00000,77.59107
1706.00000,88.74075
1708.00000,47.92797
1710.00000,7.04971
1712.00000,92.34924
1714.00000,22.83682
1716.00000,37.59891
1718.00000,77.49477
1720.00000,-0.90444
1722.00000,44.33386
1724.00000,81.24407
1726.00000,73.05782
1728.00000,35.05541
1730.00000,2.67038
1732.00000,102.32471
1734.00000,66.36799
1736.00000,25.37637
1738.00000,120.00337
1740.00000,44.83722
1742.00000,56.73331
1744.00000,82.26332
1746.00000,49.36006
1748.00000,69.36675
1750.00000,89.12089
1752.00000,80.38193
1754.00000,67.26475
1756.00000,50.56617
1758.00000,2.73074
1760.00000,28.33667
1762.00000,42.72148
1764.00000,31.24261
1766.00000,76.02519
1768.00000,77.39252
1770.00000,29.26432
1772.00000,-5.52561
1774.00000,26.59505
1776.00000,85.75615
1778.00000,21.91875
1780.00000,43.63597
1782.00000,129.03746
1784.00000,66.44038
1786.00000,83.93427
1788.00000,114.40453
1790.00000,132.61368
1792.00000,135.07895
1794.00000,74.91854
1796.00000,121.90111
1798.00000,91.59196
1800.00000,26.92820
1802.00000,99.10768
1804.00000,14.61044
1806.00000,73.60538
1808.00000,107.87051
1810.00000,0.44636
1812.00000,109.79221
1814.00000,95.60133
1816.00000,57.91746
1818.00000,113.35421
1820.00000,132.45271
1822.00000,51.19343
1824.00000,60.87047
1826.00000,90.26846
1828.00000,65.65044
1830.00000,121.46997
1832.00000,119.13759
1834.00000,69.07245
1836.00000,82.25329
1838.00000,148.13818
1840.00000,78.26163
1842.00000,21.72925
1844.00000,48.44250
1846.00000,88.81339
1848.00000,80.30101
1850.00000,55.38217
1852.00000,56.40436
1854.00000,87.13521
1856.00000,102.70047
1858.00000,64.51712
1860.00000,84.34875
1862.00000,126.02953
1864.00000,108.64988
1866.00000,67.41927
1868.00000,63.79218
1870.00000,41.81806
1872.00000,52.77361
1874.00000,115.94514
1876.00000,33.54373
1878.00000,51.29380
1880.00000,85.63387
1882.00000,55.82401
1884.00000,115.54619
1886.00000,97.17693
1888.00000,119.34228
1890.00000,168.01500
1892.00000,123.80226
1894.00000,99.71220
1896.00000,114.03370
1898.00000,109.23778
1900.00000,74.29506
1902.00000,78.52383
1904.00000,136.17532
1906.00000,98.85188
1908.00000,75.45080
1910.00000,152.44493
1912.00000,47.20108
1914.00000,72.69534
1916.00000,115.24650
1918.00000,72.71111
1920.00000,126.00326
1922.00000,91.12045
1924.00000,46.86791
1926.00000,71.06157
1928.00000,84.89894
1930.00000,22.27394
1932.00000,130.48532
1934.00000,130.46994
1936.00000,32.07825
1938.00000,193.56558
1940.00000,92.38314
1942.00000,78.75512
1944.00000,148.01408
1946.00000,68.87922
1948.00000,133.06113
1950.00000,156.67073
1952.00000,70.85149
1954.00000,54.08101
1956.00000,180.58844
1958.00000,89.03723
1960.00000,143.86357
1962.00000,211.38326
1964.00000,63.42396
1966.00000,145.02222
1968.00000,144.81258
1970.00000,192.81306
1972.00000,238.38791
1974.00000,35.01957
1976.00000,127.27514
1978.00000,109.24968
1980.00000,8.84303
1982.00000,91.69943
1984.00000,73.73548
1986.00000,34.01949
1988.00000,27.19886
1990.00000,45.20818
1992.00000,63.35856
1994.00000,35.68365
1996.00000,35.25146
1998.00000,50.44278
2000.00000,12.81610
2002.00000,10.49355
2004.00000,8.73572
2006.00000,17.54672
2008.00000,21.74477
2010.00000,17.12645
2012.00000,23.09667
2014.00000,39.57178
2016.00000,45.64183
2018.00000,44.81309
2020.00000,60.27575
2022.00000,68.98190
2024.00000,48.94667
2026.00000,35.69372
2028.00000,41.89287
2030.00000,29.95048
2032.00000,9.36167
2034.00000,30.45176
2036.00000,46.00838
2038.00000,33.06336
2040.00000,21.25245
2042.00000,36.95445
2044.00000,49.90662
2046.00000,50.81039
2048.00000,38.88731
2050.00000,31.12717
2052.00000,47.67773
2054.00000,55.59270
2056.00000,33.84398
2058.00000,22.32866
2060.00000,51.33194
2062.00000,51.08461
2064.00000,41.87200
2066.00000,46.23925
2068.00000,51.96825
2070.00000,43.84036
2072.00000,56.67365
2074.00000,64.70786
2076.00000,59.83426
2078.00000,76.21009
2080.00000,106.32922
2082.00000,118.63644
2084.00000,127.70369
2086.00000,152.13954
2088.00000,156.91133
2090.00000,142.83614
2092.00000,126.16773
2094.00000,114.65482
2096.00000,99.68604
2098.00000,71.95705
2100.00000,57.35345
2102.00000,52.94384
2104.00000,38.54758
2106.00000,32.01737
2108.00000,37.90436
2110.00000,55.63944
2112.00000,67.66274
2114.00000,55.51539
2116.00000,61.18493
2118.00000,60.83350
2120.00000,36.94314
2122.00000,21.26326
2124.00000,41.83938
2126.00000,49.72149
2128.00000,43.77742
2130.00000,46.32460
2132.00000,38.16207
2134.00000,26.11462
2136.00000,29.64109
2138.00000,36.75758
2140.00000,22.99728
2142.00000,23.77545
2144.00000,32.11545
2146.00000,29.62768
2148.00000,25.19444
2150.00000,43.57744
2152.00000,36.45807
2154.00000,32.57006
2156.00000,55.00823
2158.00000,54.70119
2160.00000,26.61933
2162.00000,27.42911
2164.00000,42.81120
2166.00000,22.98558
2168.00000,18.92517
2170.00000,38.30214
2172.00000,42.52345
2174.00000,32.81013
2176.00000,61.39246
2178.00000,68.62722
2180.00000,63.06675
2182.00000,71.29720
2184.00000,72.44227
2186.00000,33.86370
2188.00000,56.83459
2190.00000,92.20816
2192.00000,59.65193
2194.00000,62.91901
2196.00000,105.68867
2198.00000,117.82426
2200.00000,91.67744
2202.00000,95.06211
2204.00000,111.10138
2206.00000,110.44544
2208.00000,91.80093
2210.00000,74.19672
2212.00000,66.94955
2214.00000,66.22150
2216.00000,63.46500
2218.00000,52.00985
2220.00000,38.51043
2222.00000,49.66799
2224.00000,44.39771
2226.00000,15.68071
2228.00000,9.74963
2230.00000,30.46875
2232.00000,32.64504
2234.00000,10.29638
2236.00000,5.91064
2238.00000,45.03205
2240.00000,54.12302
2242.00000,44.03523
2244.00000,44.46994
2246.00000,47.96006
2248.00000,61.07919
2250.00000,76.20566
2252.00000,78.23937
2254.00000,77.57545
2256.00000,107.63568
2258.00000,113.06442
2260.00000,112.74062
2262.00000,135.14442
2264.00000,149.22635
2266.00000,148.73975
2268.00000,187.91655
2270.00000,252.51599
2272.00000,278.97256
2274.00000,281.49371
2276.00000,276.78033
2278.00000,254.80742
2280.00000,217.25314
2282.00000,190.89253
2284.00000,154.53226
2286.00000,134.56110
2288.00000,130.50011
2290.00000,110.77808
2292.00000,107.24063
2294.00000,133.04973
2296.00000,136.45834
2298.00000,96.27844
2300.00000,87.79475
2302.00000,92.18798
2304.00000,93.22131
2306.00000,82.36237
2308.00000,64.95927
2310.00000,91.00841
2312.00000,96.10978
2314.00000,81.69585
2316.00000,91.99865
2318.00000,80.59392
2320.00000,87.43189
2322.00000,71.32141
2324.00000,27.85305
2326.00000,47.51768
2328.00000,69.12750
2330.00000,68.96697
2332.00000,65.07136
2334.00000,65.87144
2336.00000,48.72991
2338.00000,39.56655
2340.00000,46.70495
2342.00000,55.43966
2344.00000,50.63316
2346.00000,11.82371
2348.00000,10.39945
2350.00000,51.57806
2352.00000,53.38050
2354.00000,41.07154
2356.00000,36.94754
2358.00000,38.74749
2360.00000,38.44265
2362.00000,37.22839
2364.00000,21.36854
2366.00000,31.04673
2368.00000,60.43517
2370.00000,46.40794
2372.00000,47.34668
2374.00000,53.40758
2376.00000,52.25595
2378.00000,56.33302
2380.00000,55.87144
2382.00000,36.72401
2384.00000,25.40091
2386.00000,32.27517
2388.00000,22.03992
2390.00000,17.53556
2392.00000,21.76692
2394.00000,36.89536
2396.00000,60.90613
2398.00000,59.57246
2400.00000,75.34490
2402.00000,68.70228
2404.00000,37.01361
2406.00000,100.18244
2408.00000,97.85608
2410.00000,54.46272
2412.00000,64.23959
2414.00000,95.76991
2416.00000,57.61077
2418.00000,46.45016
2420.00000,81.30651
2422.00000,75.30165
2424.00000,28.74695
2426.00000,38.96655
2428.00000,62.62656
2430.00000,34.81247
2432.00000,8.15189
2434.00000,28.36808
2436.00000,44.13648
2438.00000,36.07384
2440.00000,35.61229
2442.00000,25.81384
2444.00000,9.84187
2446.00000,-3.83341
2448.00000,0.90253
2450.00000,34.68290
2452.00000,40.65625
2454.00000,17.28141
2456.00000,-1.28222
2458.00000,-0.22773
2460.00000,-0.39588
2462.00000,13.87089
2464.00000,19.31682
2466.00000,0.07165
2468.00000,12.40204
2470.00000,33.02512
2472.00000,42.35244
2474.00000,47.78793
2476.00000,64.75025
2478.00000,89.67818
2480.00000,102.21410
2482.00000,107.38419
2484.00000,109.75157
2486.00000,79.12611
2488.00000,89.63492
2490.00000,124.24232
2492.00000,122.43740
2494.00000,95.69525
2496.00000,86.91107
2498.00000,81.72036
2500.00000,76.03870
2502.00000,80.46943
2504.00000,54.27639
2506.00000,34.46147
2508.00000,54.11501
2510.00000,75.76510
2512.00000,37.63877
2514.00000,42.96414
2516.00000,63.43445
2518.00000,54.58744
2520.00000,52.81576
2522.00000,54.07405
2524.00000,62.32050
2526.00000,70.53629
2528.00000,58.84138
2530.00000,30.32738
2532.00000,55.13888
2534.00000,54.28175
2536.00000,6.03252
2538.00000,35.78069
2540.00000,51.73097
2542.00000,22.88431
2544.00000,14.85639
2546.00000,52.61864
2548.00000,18.25432
2550.00000,7.50590
2552.00000,61.58140
2554.00000,85.48672
2556.00000,9.12175
2558.00000,32.24551
2560.00000,58.48899
2562.00000,18.30935
2564.00000,17.81787
2566.00000,16.13548
2568.00000,32.97149
2570.00000,37.05659
2572.00000,13.26889
2574.00000,47.87259
2576.00000,55.84937
2578.00000,45.50837
2580.00000,50.99125
2582.00000,41.28020
2584.00000,19.51205
2586.00000,40.24982
2588.00000,71.76087
2590.00000,47.16746
2592.00000,22.47001
2594.00000,40.64058
2596.00000,70.67901
2598.00000,59.29638
2600.00000,16.32736
2602.00000,30.82432
2604.00000,29.32240
2606.00000,5.46498
2608.00000,42.60404
2610.00000,64.46375
2612.00000,31.28443
2614.00000,27.00905
2616.00000,76.91627
2618.00000,41.64896
2620.00000,4.70423
2622.00000,69.15588
2624.00000,118.42226
2626.00000,8.84883
2628.00000,58.67202
2630.00000,112.25047
2632.00000,64.22449
2634.00000,42.99338
2636.00000,110.14449
2638.00000,90.53130
2640.00000,55.63820
2642.00000,79.94227
2644.00000,50.11689
2646.00000,56.90599
2648.00000,63.41032
2650.00000,39.52391
2652.00000,22.15374
2654.00000,18.07245
2656.00000,55.38361
2658.00000,103.27412
2660.00000,106.31978
2662.00000,82.86459
2664.00000,149.64143
2666.00000,176.51062
2668.00000,145.27155
2670.00000,195.95064
2672.00000,196.38040
2674.00000,154.80902
2676.00000,133.03929
2678.00000,134.46663
2680.00000,109.33797
2682.00000,106.48812
2684.00000,117.10412
2686.00000,101.22411
2688.00000,65.15649
2690.00000,65.01308
2692.00000,86.31961
2694.00000,98.19615
2696.00000,92.40376
2698.00000,74.82986
2700.00000,58.48756
2702.00000,63.55725
2704.00000,80.27040
2706.00000,73.23988
2708.00000,74.38094
2710.00000,83.38281
2712.00000,85.78975
2714.00000,80.11171
2716.00000,73.41061
2718.00000,72.40199
2720.00000,81.11559
2722.00000,79.93935
2724.00000,45.35471
2726.00000,55.45889
2728.00000,53.60906
2730.00000,34.00055
2732.00000,66.41003
2734.00000,31.69927
2736.00000,56.96997
2738.00000,81.01418
2740.00000,9.82880
2742.00000,67.62385
2744.00000,74.01021
2746.00000,40.40649
2748.00000,57.85371
2750.00000,73.98700
2752.00000,82.12903
2754.00000,43.92023
2756.00000,36.32326
2758.00000,110.81179
2760.00000,60.15792
2762.00000,23.13397
2764.00000,55.42795
2766.00000,77.32684
2768.00000,54.49069
2770.00000,38.32158
2772.00000,44.57496
2774.00000,57.32291
2776.00000,69.77380
2778.00000,94.41717
2780.00000,80.62482
2782.00000,64.61380
2784.00000,84.03526
2786.00000,65.00890
2788.00000,85.97541
2790.00000,100.84700
2792.00000,75.09863
2794.00000,77.55453
2796.00000,80.19497
2798.00000,59.72958
2800.00000,45.86898
2802.00000,69.49963
2804.00000,86.67848
2806.00000,63.99829
2808.00000,72.22112
2810.00000,118.92193
2812.00000,90.56599
2814.00000,64.48936
2816.00000,63.88670
2818.00000,63.94181
2820.00000,57.30593
2822.00000,64.82257
2824.00000,41.51145
2826.00000,56.00447
2828.00000,112.18465
2830.00000,37.48386
2832.00000,-1.04599
2834.00000,33.68962
2836.00000,75.52940
2838.00000,90.47961
2840.00000,81.08276
2842.00000,71.68490
2844.00000,78.05283
2846.00000,83.13531
2848.00000,64.90029
2850.00000,117.02104
2852.00000,147.91273
2854.00000,103.33548
2856.00000,114.53462
2858.00000,161.80685
2860.00000,134.03926
2862.00000,116.90646
2864.00000,224.58865
2866.00000,228.11003
2868.00000,166.98495
2870.00000,220.51651
2872.00000,320.43350
2874.00000,182.15585
2876.00000,149.71506
2878.00000,185.65068
2880.00000,142.85091
2882.00000,86.47839
2884.00000,123.49462
2886.00000,160.76599
2888.00000,136.93211
2890.00000,97.11274
2892.00000,95.04151
2894.00000,89.49043
2896.00000,58.80539
2898.00000,49.42331
2900.00000,98.09508
2902.00000,96.65958
2904.00000,98.10915
2906.00000,131.58157
2908.00000,143.08066
2910.00000,120.74409
2912.00000,133.51311
2914.00000,114.59436
2916.00000,62.12222
2918.00000,112.45548
2920.00000,103.67969
2922.00000,72.48959
2924.00000,84.19038
2926.00000,96.14004
2928.00000,76.42574
2930.00000,109.83469
2932.00000,138.44911
2934.00000,111.00695
2936.00000,137.38817
2938.00000,97.10498
2940.00000,102.14968
2942.00000,155.28145
2944.00000,80.58937
2946.00000,40.12830
2948.00000,119.97979
2950.00000,155.19502
2952.00000,72.21220
2954.00000,141.13947
2956.00000,104.93922
2958.00000,12.55470
2960.00000,85.36725
2962.00000,258.56970
2964.00000,182.90318
2966.00000,189.87057
2968.00000,257.63046
2970.00000,129.88130
2972.00000,254.12651
2974.00000,220.32581
2976.00000,196.69792
2978.00000,344.84027
2980.00000,171.98564
2982.00000,125.63633
2984.00000,198.93810
2986.00000,168.39362
2988.00000,83.37165
2990.00000,190.74857
2992.00000,160.49242
2994.00000,71.80938
2996.00000,138.70963
2998.00000,76.86931
3000.00000,107.13608
3002.00000,169.45119
3004.00000,142.53941
3006.00000,117.15395
3008.00000,119.00151
3010.00000,109.21479
3012.00000,71.01343
3014.00000,46.06388
3016.00000,78.50258
3018.00000,73.16193
3020.00000,100.79532
3022.00000,177.30753
3024.00000,151.11597
3026.00000,164.71326
3028.00000,142.16988
3030.00000,90.67436
3032.00000,141.92311
3034.00000,203.23558
3036.00000,183.15613
3038.00000,192.97876
3040.00000,257.85004
3042.00000,175.70212
3044.00000,211.11247
3046.00000,287.19415
3048.00000,322.16644
3050.00000,410.82315
3052.00000,412.42902
3054.00000,432.34937
3056.00000,450.14999
3058.00000,389.74371
3060.00000,386.89893
3062.00000,356.87698
3064.00000,325.99817
3066.00000,285.58359
3068.00000,164.04546
3070.00000,204.28941
3072.00000,224.56030
3074.00000,193.07813
3076.00000,254.41460
3078.00000,225.46179
3080.00000,133.56876
3082.00000,153.85376
3084.00000,250.11009
3086.00000,170.86455
3088.00000,191.75786
3090.00000,221.55112
3092.00000,139.16866
3094.00000,78.92918
3096.00000,158.03636
3098.00000,199.13219
3100.00000,104.02219
3102.00000,62.12469
3104.00000,276.47476
3106.00000,180.86113
3108.00000,91.17822
3110.00000,224.67589
3112.00000,157.04752
3114.00000,121.32912
3116.00000,119.91480
3118.00000,204.03795
3120.00000,322.18680
3122.00000,103.26425
3124.00000,111.97182
3126.00000,271.05566
3128.00000,236.82303
3130.00000,147.42831
3132.00000,112.49372
3134.00000,148.70663
3136.00000,181.65536
3138.00000,184.93027
3140.00000,280.72458
3142.00000,221.69791
3144.00000,92.93256
3146.00000,93.38178
3148.00000,91.87498
3150.00000,103.99911
3152.00000,107.82522
3154.00000,123.06417
3156.00000,175.78067
3158.00000,115.06076
3160.00000,107.52212
3162.00000,177.87505
3164.00000,209.44171
3166.00000,235.60115
3168.00000,217.29068
3170.00000,184.92509
3172.00000,195.11230
3174.00000,214.79982
3176.00000,120.69465
3178.00000,114.77516
3180.00000,209.48592
3182.00000,211.30907
3184.00000,176.47267
3186.00000,156.91194
3188.00000,219.94589
3190.00000,279.54352
3192.00000,147.36873
3194.00000,111.25663
3196.00000,172.69847
3198.00000,182.13672
3200.00000,137.52319
