300.00000,56.47066
302.00000,55.64623
304.00000,67.42604
306.00000,58.23565
308.00000,39.44707
310.00000,37.41204
312.00000,49.81120
314.00000,52.66805
316.00000,57.83674
318.00000,67.31171
320.00000,60.04845
322.00000,30.20989
324.00000,34.47612
326.00000,52.34474
328.00000,45.78846
330.00000,29.31414
332.00000,32.12775
334.00000,28.76091
336.00000,11.35623
338.00000,8.85387
340.00000,35.95699
342.00000,33.95114
344.00000,24.97606
346.00000,37.63701
348.00000,44.15939
350.00000,26.73278
352.00000,12.10162
354.00000,19.20959
356.00000,40.53251
358.00000,54.93811
360.00000,41.87244
362.00000,30.09900
364.00000,27.78828
366.00000,14.25941
368.00000,19.14106
370.00000,18.16883
372.00000,11.51980
374.00000,16.31741
376.00000,21.94555
378.00000,32.05321
380.00000,33.77860
382.00000,25.06651
384.00000,22.83235
386.00000,29.16902
388.00000,32.24755
390.00000,29.73991
392.00000,25.78674
394.00000,24.36604
396.00000,44.68086
398.00000,56.93367
400.00000,43.05447
402.00000,30.66751
404.00000,46.84044
406.00000,73.42400
408.00000,69.25233
410.00000,44.25982
412.00000,57.20289
414.00000,47.26939
416.00000,39.77432
418.00000,55.28138
420.00000,68.92805
422.00000,92.80077
424.00000,96.95423
426.00000,95.74206
428.00000,117.56776
430.00000,143.56030
432.00000,150.86633
434.00000,150.68997
436.00000,164.91969
438.00000,193.03265
440.00000,206.80383
442.00000,212.66444
444.00000,213.27303
446.00000,204.58388
448.00000,193.36641
450.00000,195.05701
452.00000,200.70108
454.00000,193.97354
456.00000,169.55278
458.00000,137.40822
460.00000,120.62421
462.00000,119.22430
464.00000,112.22220
466.00000,86.74873
468.00000,66.05883
470.00000,68.71153
472.00000,97.27104
474.00000,152.96149
476.00000,262.84265
478.00000,480.74942
480.00000,749.98499
482.00000,940.85242
484.00000,954.86230
486.00000,781.06696
488.00000,558.99567
490.00000,394.03314
492.00000,278.90469
494.00000,182.07777
496.00000,147.74384
498.00000,129.91541
500.00000,81.34222
502.00000,53.85837
504.00000,80.52639
506.00000,87.53728
508.00000,61.39488
510.00000,56.44005
512.00000,61.93929
514.00000,51.02978
516.00000,39.12996
518.00000,43.01492
520.00000,47.77697
522.00000,50.13131
524.00000,38.19627
526.00000,20.04447
528.00000,15.63524
530.00000,22.22533
532.00000,27.58594
534.00000,21.57051
536.00000,14.48167
538.00000,21.73882
540.00000,16.75448
542.00000,26.15985
544.00000,53.11433
546.00000,68.20284
548.00000,65.94929
550.00000,55.12415
552.00000,59.20808
554.00000,63.92281
556.00000,33.43945
558.00000,19.15985
560.00000,23.71065
562.00000,40.20531
564.00000,54.37132
566.00000,34.09767
568.00000,33.01492
570.00000,63.33201
572.00000,82.71751
574.00000,72.64237
576.00000,110.10028
578.00000,158.09564
580.00000,182.83154
582.00000,204.61827
584.00000,243.92281
586.00000,275.68594
588.00000,311.16394
590.00000,358.78845
592.00000,393.14096
594.00000,399.03534
596.00000,374.21292
598.00000,324.72852
600.00000,269.42758
602.00000,234.37843
604.00000,211.81099
606.00000,196.89047
608.00000,184.92848
610.00000,169.66528
612.00000,158.13681
614.00000,147.43744
616.00000,132.76022
618.00000,119.82259
620.00000,121.28175
622.00000,123.34464
624.00000,110.37572
626.00000,93.47552
628.00000,89.74818
630.00000,71.76080
632.00000,55.58460
634.00000,50.25310
636.00000,48.18144
638.00000,47.38708
640.00000,45.21037
642.00000,43.19748
644.00000,41.44835
646.00000,36.77768
648.00000,28.67656
650.00000,18.18120
652.00000,11.89749
654.00000,15.03248
656.00000,21.94807
658.00000,21.90178
660.00000,28.70109
662.00000,38.54163
664.00000,36.50085
666.00000,56.31470
668.00000,111.84045
670.00000,201.37921
672.00000,348.67242
674.00000,612.12195
676.00000,996.27759
678.00000,1392.49817
680.00000,1602.79492
682.00000,1490.20569
684.00000,1155.07275
686.00000,753.08435
688.00000,468.07758
690.00000,363.40610
692.00000,310.60782
694.00000,239.78860
696.00000,195.85754
698.00000,186.86766
700.00000,167.22025
702.00000,158.29036
704.00000,130.30469
706.00000,92.77635
708.00000,76.84297
710.00000,78.76505
712.00000,81.87527
714.00000,74.69749
716.00000,69.02012
718.00000,77.48167
720.00000,75.90770
722.00000,60.59570
724.00000,50.36148
726.00000,53.77632
728.00000,55.86841
730.00000,62.42083
732.00000,101.10569
734.00000,169.58284
736.00000,264.45392
738.00000,462.09424
740.00000,855.95508
742.00000,1522.62146
744.00000,2346.22998
746.00000,2934.39038
748.00000,2881.07397
750.00000,2242.40259
752.00000,1414.34705
754.00000,788.82275
756.00000,453.63913
758.00000,280.31134
760.00000,181.60818
762.00000,131.60530
764.00000,112.59556
766.00000,134.16299
768.00000,171.83894
770.00000,215.21907
772.00000,266.57288
774.00000,300.10034
776.00000,315.19211
778.00000,307.43466
780.00000,282.32315
782.00000,255.97337
784.00000,210.85413
786.00000,159.66063
788.00000,113.05479
790.00000,71.45474
792.00000,46.12563
794.00000,40.92557
796.00000,45.11854
798.00000,43.02996
800.00000,30.77180
802.00000,25.55076
804.00000,29.95471
806.00000,27.61600
808.00000,17.01413
810.00000,25.29814
812.00000,12.08737
814.00000,11.13048
816.00000,33.33864
818.00000,23.23484
820.00000,23.21111
822.00000,65.70118
824.00000,95.78289
826.00000,97.74370
828.00000,188.14751
830.00000,248.02126
832.00000,248.71378
834.00000,237.98946
836.00000,224.36781
838.00000,185.93478
840.00000,178.50359
842.00000,197.45798
844.00000,199.69064
846.00000,205.39461
848.00000,195.82013
850.00000,183.41055
852.00000,165.90709
854.00000,121.00762
856.00000,91.05801
858.00000,65.90450
860.00000,44.59777
862.00000,36.07684
864.00000,24.77344
866.00000,23.76510
868.00000,36.48458
870.00000,52.75388
872.00000,57.65384
874.00000,39.87759
876.00000,17.30139
878.00000,8.20440
880.00000,12.42089
882.00000,15.05512
884.00000,10.79746
886.00000,15.84515
888.00000,29.48789
890.00000,33.61085
892.00000,40.77720
894.00000,41.97177
896.00000,44.58363
898.00000,49.67319
900.00000,33.49386
902.00000,37.33365
904.00000,35.40937
906.00000,19.52347
908.00000,22.64017
910.00000,13.96960
912.00000,0.42175
914.00000,7.92324
916.00000,32.83629
918.00000,40.65200
920.00000,56.11486
922.00000,46.80350
924.00000,25.48108
926.00000,46.59007
928.00000,58.03604
930.00000,55.73208
932.00000,68.50960
934.00000,92.59938
936.00000,84.43378
938.00000,79.99601
940.00000,105.14959
942.00000,139.92844
944.00000,169.24802
946.00000,252.54024
948.00000,389.07889
950.00000,557.51398
952.00000,703.26172
954.00000,736.54236
956.00000,641.11334
958.00000,469.15945
960.00000,295.05655
962.00000,176.49913
964.00000,129.75136
966.00000,105.47735
968.00000,82.05978
970.00000,67.61131
972.00000,58.14588
974.00000,37.46669
976.00000,26.76752
978.00000,40.75465
980.00000,62.08909
982.00000,67.09350
984.00000,60.02596
986.00000,58.30265
988.00000,71.73379
990.00000,92.52463
992.00000,108.50155
994.00000,135.89230
996.00000,178.67337
998.00000,228.07619
1000.00000,295.16580
1002.00000,355.17307
1004.00000,403.43793
1006.00000,428.58972
1008.00000,395.48276
1010.00000,322.07507
1012.00000,233.10728
1014.00000,147.17303
1016.00000,83.14621
1018.00000,59.01046
1020.00000,49.13002
1022.00000,42.39677
1024.00000,47.92601
1026.00000,65.87431
1028.00000,70.18577
1030.00000,84.90994
1032.00000,111.10162
1034.00000,118.00651
1036.00000,109.43394
1038.00000,117.25927
1040.00000,113.38613
1042.00000,90.60948
1044.00000,91.00026
1046.00000,61.20074
1048.00000,43.99065
1050.00000,44.18163
1052.00000,26.23444
1054.00000,27.29639
1056.00000,46.13976
1058.00000,44.90738
1060.00000,32.22568
1062.00000,51.99751
1064.00000,37.85008
1066.00000,34.79971
1068.00000,44.04969
1070.00000,27.13433
1072.00000,27.56000
1074.00000,29.17107
1076.00000,36.25736
1078.00000,62.79362
1080.00000,87.53447
1082.00000,68.06598
1084.00000,100.43201
1086.00000,128.97000
1088.00000,70.49931
1090.00000,76.68075
1092.00000,76.31227
1094.00000,87.25377
1096.00000,124.71358
1098.00000,133.57533
1100.00000,188.69388
1102.00000,307.66327
1104.00000,453.85843
1106.00000,590.66266
1108.00000,699.02191
1110.00000,702.87604
1112.00000,577.66132
1114.00000,406.64471
1116.00000,292.29797
1118.00000,188.43942
1120.00000,154.16217
1122.00000,167.16501
1124.00000,173.67368
1126.00000,236.29042
1128.00000,324.50555
1130.00000,402.27203
1132.00000,466.43585
1134.00000,560.51563
1136.00000,765.46478
1138.00000,1050.28503
1140.00000,1391.14661
1142.00000,1697.50793
1144.00000,1743.68237
1146.00000,1512.06958
1148.00000,1119.24084
1150.00000,731.56604
1152.00000,481.42633
1154.00000,380.78970
1156.00000,325.76697
1158.00000,275.81989
1160.00000,235.07896
1162.00000,170.71254
1164.00000,122.78789
1166.00000,81.83614
1168.00000,54.89324
1170.00000,71.69323
1172.00000,79.46281
1174.00000,82.06035
1176.00000,146.08121
1178.00000,290.27621
1180.00000,436.07031
1182.00000,593.90118
1184.00000,708.11682
1186.00000,740.53870
1188.00000,728.79645
1190.00000,716.88800
1192.00000,731.50574
1194.00000,746.55267
1196.00000,726.60620
1198.00000,681.03204
1200.00000,633.01447
1202.00000,615.46808
1204.00000,630.49609
1206.00000,652.30255
1208.00000,675.65814
1210.00000,691.29199
1212.00000,726.59351
1214.00000,763.16443
1216.00000,723.21112
1218.00000,698.99554
1220.00000,638.53833
1222.00000,501.30524
1224.00000,352.22232
1226.00000,238.80006
1228.00000,167.28981
1230.00000,108.85802
1232.00000,53.58966
1234.00000,30.94168
1236.00000,26.17013
1238.00000,18.59211
1240.00000,8.22645
1242.00000,5.46147
1244.00000,3.14025
1246.00000,0.85875
1248.00000,0.85059
1250.00000,2.19602
1252.00000,1.75297
1254.00000,2.21457
1256.00000,2.18119
1258.00000,4.79435
1260.00000,10.72655
1262.00000,8.36224
1264.00000,20.74585
1266.00000,27.71609
1268.00000,26.73244
1270.00000,54.43935
1272.00000,41.03709
1274.00000,39.95367
1276.00000,52.49302
1278.00000,31.21851
1280.00000,48.76166
1282.00000,77.03780
1284.00000,92.14889
1286.00000,110.21704
1288.00000,152.44775
1290.00000,201.72049
1292.00000,248.33636
1294.00000,299.79608
1296.00000,375.79602
1298.00000,494.42331
1300.00000,645.56317
1302.00000,819.92255
1304.00000,997.99597
1306.00000,1122.31738
1308.00000,1107.33228
1310.00000,998.14966
1312.00000,862.57275
1314.00000,746.92352
1316.00000,699.22156
1318.00000,667.34991
1320.00000,695.96600
1322.00000,782.72388
1324.00000,822.56091
1326.00000,888.42780
1328.00000,979.58917
1330.00000,1151.52026
1332.00000,1501.42822
1334.00000,2030.00146
1336.00000,2742.26733
1338.00000,3577.63257
1340.00000,4259.80615
1342.00000,4394.82129
1344.00000,3913.66943
1346.00000,2994.04614
1348.00000,1991.71375
1350.00000,1239.58728
1352.00000,814.02997
1354.00000,579.50403
1356.00000,408.67407
1358.00000,294.54767
1360.00000,276.53033
1362.00000,249.64790
1364.00000,224.25816
1366.00000,219.78316
1368.00000,220.22481
1370.00000,218.09354
1372.00000,196.70293
1374.00000,209.04210
1376.00000,208.69862
1378.00000,101.57621
1380.00000,81.82877
1382.00000,62.69617
1384.00000,34.05685
1386.00000,51.14223
1388.00000,16.62749
1390.00000,-3.49030
1392.00000,6.10146
1394.00000,14.68936
1396.00000,18.28825
1398.00000,43.36318
1400.00000,77.47688
1402.00000,56.27737
1404.00000,13.38094
1406.00000,97.71929
1408.00000,98.86381
1410.00000,80.23003
1412.00000,110.53953
1414.00000,95.69176
1416.00000,104.01856
1418.00000,82.48087
1420.00000,66.25082
1422.00000,108.19861
1424.00000,132.70215
1426.00000,187.91234
1428.00000,218.13652
1430.00000,210.02335
1432.00000,225.29959
1434.00000,210.27475
1436.00000,267.95132
1438.00000,385.31564
1440.00000,480.65042
1442.00000,608.03455
1444.00000,867.15253
1446.00000,1237.22217
1448.00000,1663.54541
1450.00000,2025.40479
1452.00000,2014.57617
1454.00000,1662.18286
1456.00000,1174.74060
1458.00000,750.59979
1460.00000,483.31714
1462.00000,333.52832
1464.00000,265.52859
1466.00000,215.23196
1468.00000,146.86293
1470.00000,157.26202
1472.00000,118.14552
1474.00000,103.99577
1476.00000,173.19565
1478.00000,139.48935
1480.00000,171.37997
1482.00000,165.23169
1484.00000,91.89495
1486.00000,85.75872
1488.00000,61.09954
1490.00000,48.49836
1492.00000,40.40043
1494.00000,16.15851
1496.00000,17.02002
1498.00000,33.09687
1500.00000,67.04623
1502.00000,108.87280
1504.00000,144.30702
1506.00000,200.58496
1508.00000,278.00760
1510.00000,389.97522
1512.00000,552.43420
1514.00000,768.47119
1516.00000,1078.91296
1518.00000,1603.65063
1520.00000,2395.88379
1522.00000,3574.21729
1524.00000,5478.29736
1526.00000,7749.56396
1528.00000,9445.93359
1530.00000,9630.24707
1532.00000,8162.30127
1534.00000,6212.66064
1536.00000,4468.83154
1538.00000,3200.14819
1540.00000,2413.98413
1542.00000,1800.82666
1544.00000,1422.32825
1546.00000,1111.71802
1548.00000,796.79645
1550.00000,704.45367
1552.00000,580.51825
1554.00000,474.66489
1556.00000,419.27045
1558.00000,327.96033
1560.00000,260.48630
1562.00000,230.29114
1564.00000,193.85300
1566.00000,152.42296
1568.00000,150.32663
1570.00000,104.79428
1572.00000,111.09333
1574.00000,143.36537
1576.00000,109.62691
1578.00000,132.85880
1580.00000,137.60846
1582.00000,146.81049
1584.00000,185.70555
1586.00000,180.82318
1588.00000,175.11940
1590.00000,218.21310
1592.00000,234.71883
1594.00000,192.35104
1596.00000,261.56116
1598.00000,261.65887
1600.00000,241.45811
1602.00000,303.08704
1604.00000,348.11447
1606.00000,320.52286
1608.00000,328.09882
1610.00000,342.23642
1612.00000,274.48886
1614.00000,232.73653
1616.00000,205.62155
1618.00000,185.29251
1620.00000,141.88055
1622.00000,59.18055
1624.00000,81.65240
1626.00000,82.33762
1628.00000,51.17532
1630.00000,83.10464
1632.00000,95.92941
1634.00000,73.61887
1636.00000,72.64517
1638.00000,68.82584
1640.00000,12.19172
1642.00000,82.10468
1644.00000,73.57126
1646.00000,-8.86965
1648.00000,-0.09495
1650.00000,2.66969
1652.00000,10.19325
1654.00000,22.99025
1656.00000,16.73068
1658.00000,-1.16468
1660.00000,28.32030
1662.00000,25.08564
1664.00000,-4.04153
1666.00000,0.00743
1668.00000,-1.34352
1670.00000,22.80121
1672.00000,31.58560
1674.00000,9.57635
1676.00000,14.13598
1678.00000,42.32455
1680.00000,24.16876
1682.00000,0.72419
1684.00000,35.50938
1686.00000,54.80446
1688.00000,20.19218
1690.00000,4.13262
1692.00000,19.14000
1694.00000,11.89164
1696.00000,58.31469
1698.00000,56.66084
1700.00000,19.69632
1702.00000,24.98781
1704.00000,27.48759
1706.00000,37.84956
1708.00000,51.70967
1710.00000,58.74867
1712.00000,58.79523
1714.00000,49.60707
1716.00000,46.29914
1718.00000,68.31149
1720.00000,78.50671
1722.00000,18.71482
1724.00000,38.91478
1726.00000,51.43621
1728.00000,49.20565
1730.00000,127.20565
1732.00000,82.40916
1734.00000,3.07364
1736.00000,25.26101
1738.00000,107.38035
1740.00000,93.97939
1742.00000,92.31724
1744.00000,94.70570
1746.00000,61.90761
1748.00000,46.97359
1750.00000,117.28626
1752.00000,96.25543
1754.00000,66.67767
1756.00000,112.51462
1758.00000,56.37047
1760.00000,85.47131
1762.00000,68.97775
1764.00000,2.93318
1766.00000,63.97564
1768.00000,99.44604
1770.00000,99.25555
1772.00000,69.08778
1774.00000,37.63591
1776.00000,63.65368
1778.00000,50.27433
1780.00000,56.78976
1782.00000,78.44287
1784.00000,56.35713
1786.00000,99.48167
1788.00000,54.07420
1790.00000,35.20370
1792.00000,107.32446
1794.00000,40.01615
1796.00000,27.68866
1798.00000,31.53249
1800.00000,33.50785
1802.00000,80.78672
1804.00000,49.00339
1806.00000,68.46908
1808.00000,65.28511
1810.00000,1.98729
1812.00000,55.28158
1814.00000,69.27729
1816.00000,105.58508
1818.00000,110.59885
1820.00000,20.12769
1822.00000,109.69044
1824.00000,91.43109
1826.00000,19.19509
1828.00000,55.30232
1830.00000,67.54904
1832.00000,47.27765
1834.00000,19.07209
1836.00000,50.21050
1838.00000,116.15645
1840.00000,39.42680
1842.00000,77.02505
1844.00000,103.24941
1846.00000,29.40239
1848.00000,97.34891
1850.00000,89.48434
1852.00000,42.79995
1854.00000,60.18451
1856.00000,103.21820
1858.00000,69.97455
1860.00000,82.27287
1862.00000,97.44089
1864.00000,55.01252
1866.00000,51.58434
1868.00000,118.01427
1870.00000,80.74410
1872.00000,17.89700
1874.00000,84.08131
1876.00000,84.28250
1878.00000,110.94228
1880.00000,117.96331
1882.00000,87.52880
1884.00000,131.66565
1886.00000,136.69543
1888.00000,104.60021
1890.00000,95.09152
1892.00000,123.02415
1894.00000,146.18073
1896.00000,163.41490
1898.00000,88.10645
1900.00000,25.43576
1902.00000,154.47919
1904.00000,101.96789
1906.00000,35.92875
1908.00000,77.73434
1910.00000,113.85654
1912.00000,98.80119
1914.00000,67.19708
1916.00000,108.20512
1918.00000,179.00749
1920.00000,156.20769
1922.00000,159.70071
1924.00000,126.45488
1926.00000,74.09629
1928.00000,79.42069
1930.00000,94.46555
1932.00000,139.25662
1934.00000,164.53160
1936.00000,138.00903
1938.00000,111.87203
1940.00000,126.31789
1942.00000,114.66782
1944.00000,107.98288
1946.00000,139.60838
1948.00000,115.09723
1950.00000,145.92183
1952.00000,173.88786
1954.00000,135.10550
1956.00000,105.49514
1958.00000,129.00629
1960.00000,69.33278
1962.00000,34.76513
1964.00000,121.62537
1966.00000,89.82155
1968.00000,39.73441
1970.00000,92.91354
1972.00000,144.64812
1974.00000,83.45840
1976.00000,180.00798
1978.00000,110.76324
1980.00000,24.12738
1982.00000,147.36203
1984.00000,105.21706
1986.00000,80.02554
1988.00000,96.67264
1990.00000,65.24323
1992.00000,17.05143
1994.00000,83.92754
1996.00000,68.79919
1998.00000,37.63078
2000.00000,22.79481
2002.00000,22.01429
2004.00000,26.51456
2006.00000,39.65393
2008.00000,56.08394
2010.00000,70.45412
2012.00000,79.15928
2014.00000,82.97586
2016.00000,88.79291
2018.00000,104.82829
2020.00000,118.89635
2022.00000,120.66660
2024.00000,116.13773
2026.00000,115.98710
2028.00000,97.13905
2030.00000,75.34968
2032.00000,76.36137
2034.00000,91.12580
2036.00000,80.49419
2038.00000,78.21143
2040.00000,87.36095
2042.00000,74.55760
2044.00000,45.06755
2046.00000,48.58136
2048.00000,66.60220
2050.00000,58.88793
2052.00000,32.37657
2054.00000,24.32571
2056.00000,40.33718
2058.00000,51.50735
2060.00000,40.32382
2062.00000,38.99350
2064.00000,39.00647
2066.00000,44.84781
2068.00000,54.42112
2070.00000,43.96875
2072.00000,40.48122
2074.00000,39.84927
2076.00000,50.88547
2078.00000,84.08687
2080.00000,86.10889
2082.00000,103.52917
2084.00000,139.78305
2086.00000,154.21188
2088.00000,148.28999
2090.00000,146.14214
2092.00000,147.24414
2094.00000,135.84384
2096.00000,104.83297
2098.00000,69.41520
2100.00000,70.79897
2102.00000,75.41991
2104.00000,42.16650
2106.00000,40.95138
2108.00000,61.64705
2110.00000,59.64318
2112.00000,44.20993
2114.00000,65.80663
2116.00000,63.53973
2118.00000,59.06115
2120.00000,81.95841
2122.00000,100.47949
2124.00000,67.48702
2126.00000,60.41256
2128.00000,77.07627
2130.00000,73.04125
2132.00000,68.90427
2134.00000,50.90770
2136.00000,26.40358
2138.00000,18.04563
2140.00000,29.29062
2142.00000,26.83028
2144.00000,22.22473
2146.00000,23.06833
2148.00000,29.09708
2150.00000,48.34414
2152.00000,42.00471
2154.00000,26.38893
2156.00000,31.62229
2158.00000,44.12669
2160.00000,37.30677
2162.00000,43.42771
2164.00000,45.82350
2166.00000,23.28536
2168.00000,57.02863
2170.00000,72.47437
2172.00000,48.93377
2174.00000,35.18114
2176.00000,48.80376
2178.00000,37.28806
2180.00000,32.99280
2182.00000,44.23728
2184.00000,31.33192
2186.00000,25.27621
2188.00000,42.80833
2190.00000,61.66517
2192.00000,62.41364
2194.00000,68.41837
2196.00000,93.97145
2198.00000,109.74964
2200.00000,103.62289
2202.00000,103.85130
2204.00000,115.89565
2206.00000,141.84224
2208.00000,154.33524
2210.00000,135.88814
2212.00000,124.10240
2214.00000,98.11726
2216.00000,59.69878
2218.00000,52.02456
2220.00000,94.68521
2222.00000,90.45864
2224.00000,60.15047
2226.00000,53.70174
2228.00000,61.25976
2230.00000,41.80873
2232.00000,36.94802
2234.00000,37.04459
2236.00000,15.63845
2238.00000,8.69418
2240.00000,32.76690
2242.00000,37.17514
2244.00000,18.95276
2246.00000,27.40314
2248.00000,24.84652
2250.00000,33.70492
2252.00000,55.46374
2254.00000,66.28590
2256.00000,73.17686
2258.00000,90.97517
2260.00000,103.68929
2262.00000,102.12414
2264.00000,113.74741
2266.00000,166.15755
2268.00000,233.19565
2270.00000,283.87344
2272.00000,318.95224
2274.00000,351.59567
2276.00000,326.04230
2278.00000,276.51080
2280.00000,248.88884
2282.00000,203.10469
2284.00000,139.61517
2286.00000,129.29825
2288.00000,153.97552
2290.00000,123.14402
2292.00000,80.66055
2294.00000,105.72417
2296.00000,133.79207
2298.00000,94.67390
2300.00000,84.39918
2302.00000,121.47604
2304.00000,116.09772
2306.00000,85.04887
2308.00000,125.62724
2310.00000,92.87161
2312.00000,81.28545
2314.00000,94.53133
2316.00000,65.07994
2318.00000,88.85247
2320.00000,73.05133
2322.00000,46.87223
2324.00000,55.80939
2326.00000,38.82315
2328.00000,29.34319
2330.00000,44.57745
2332.00000,56.35936
2334.00000,42.73281
2336.00000,41.74045
2338.00000,23.97018
2340.00000,2.42183
2342.00000,13.16018
2344.00000,36.98213
2346.00000,16.40462
2348.00000,-2.27911
2350.00000,7.44539
2352.00000,2.57916
2354.00000,-5.41409
2356.00000,20.18612
2358.00000,38.08553
2360.00000,8.09332
2362.00000,-0.79349
2364.00000,15.37275
2366.00000,37.13683
2368.00000,35.24268
2370.00000,8.91873
2372.00000,40.72352
2374.00000,42.60672
2376.00000,-1.11404
2378.00000,4.58069
2380.00000,59.34294
2382.00000,42.70740
2384.00000,9.62632
2386.00000,23.05309
2388.00000,1.94644
2390.00000,18.84990
2392.00000,19.92486
2394.00000,0.79466
2396.00000,27.37868
2398.00000,27.51382
2400.00000,19.52745
2402.00000,35.10182
2404.00000,51.63511
2406.00000,27.45902
2408.00000,46.97785
2410.00000,80.11212
2412.00000,83.83184
2414.00000,84.53850
2416.00000,77.54124
2418.00000,97.28251
2420.00000,120.42664
2422.00000,103.12659
2424.00000,88.85477
2426.00000,111.60074
2428.00000,85.85538
2430.00000,19.47838
2432.00000,58.78276
2434.00000,89.84966
2436.00000,40.82396
2438.00000,2.79230
2440.00000,52.05244
2442.00000,31.23578
2444.00000,25.02168
2446.00000,36.43466
2448.00000,30.76574
2450.00000,61.12903
2452.00000,36.07416
2454.00000,24.04274
2456.00000,65.99878
2458.00000,77.13119
2460.00000,41.16196
2462.00000,32.18150
2464.00000,45.36664
2466.00000,28.85906
2468.00000,13.20230
2470.00000,47.23858
2472.00000,52.72931
2474.00000,24.31300
2476.00000,66.52121
2478.00000,73.87566
2480.00000,78.55402
2482.00000,80.79017
2484.00000,52.39846
2486.00000,74.52687
2488.00000,66.59900
2490.00000,45.11738
2492.00000,57.80521
2494.00000,60.48650
2496.00000,50.03701
2498.00000,49.07967
2500.00000,57.98204
2502.00000,54.78624
2504.00000,42.83026
2506.00000,45.34476
2508.00000,44.15601
2510.00000,18.37059
2512.00000,1.59163
2514.00000,17.35705
2516.00000,19.88793
2518.00000,2.64560
2520.00000,14.04399
2522.00000,14.97590
2524.00000,7.08225
2526.00000,10.74919
2528.00000,21.71026
2530.00000,7.67019
2532.00000,-11.08777
2534.00000,22.47706
2536.00000,72.10624
2538.00000,29.53365
2540.00000,-0.60855
2542.00000,55.69893
2544.00000,89.27000
2546.00000,7.29532
2548.00000,8.59958
2550.00000,14.99331
2552.00000,4.05486
2554.00000,22.32808
2556.00000,40.12487
2558.00000,19.75254
2560.00000,0.04873
2562.00000,-0.88326
2564.00000,-2.49586
2566.00000,32.55323
2568.00000,39.16442
2570.00000,21.57643
2572.00000,30.60212
2574.00000,39.99419
2576.00000,33.59172
2578.00000,52.44022
2580.00000,68.75675
2582.00000,22.74397
2584.00000,76.02275
2586.00000,106.54844
2588.00000,77.90842
2590.00000,77.69471
2592.00000,52.03714
2594.00000,67.62270
2596.00000,91.60316
2598.00000,67.94493
2600.00000,44.23015
2602.00000,54.98242
2604.00000,66.18750
2606.00000,75.47054
2608.00000,110.78722
2610.00000,120.49100
2612.00000,72.71689
2614.00000,79.12184
2616.00000,154.42789
2618.00000,103.84165
2620.00000,125.94073
2622.00000,147.02583
2624.00000,113.98943
2626.00000,151.98682
2628.00000,161.33397
2630.00000,165.69843
2632.00000,150.73230
2634.00000,103.82418
2636.00000,129.51346
2638.00000,121.33635
2640.00000,137.81096
2642.00000,191.18091
2644.00000,136.54637
2646.00000,114.86667
2648.00000,167.81279
2650.00000,207.09552
2652.00000,178.86856
2654.00000,195.16368
2656.00000,233.34708
2658.00000,221.94653
2660.00000,204.80174
2662.00000,292.87872
2664.00000,270.98193
2666.00000,249.25523
2668.00000,303.67096
2670.00000,306.55545
2672.00000,292.65302
2674.00000,282.10605
2676.00000,261.46664
2678.00000,221.74298
2680.00000,186.16434
2682.00000,171.99425
2684.00000,177.38968
2686.00000,155.01105
2688.00000,87.90236
2690.00000,124.95901
2692.00000,138.39246
2694.00000,82.19326
2696.00000,65.75542
2698.00000,93.39455
2700.00000,76.53342
2702.00000,84.57227
2704.00000,141.80125
2706.00000,109.80882
2708.00000,90.37083
2710.00000,133.48215
2712.00000,161.80574
2714.00000,114.16399
2716.00000,109.80959
2718.00000,90.29996
2720.00000,65.58334
2722.00000,73.43975
2724.00000,51.84448
2726.00000,39.64183
2728.00000,63.10071
2730.00000,89.84731
2732.00000,76.88028
2734.00000,59.86641
2736.00000,41.49581
2738.00000,48.52563
2740.00000,81.54257
2742.00000,56.71854
2744.00000,24.84637
2746.00000,42.22359
2748.00000,81.40498
2750.00000,70.73112
2752.00000,51.51022
2754.00000,60.80825
2756.00000,49.64879
2758.00000,17.76848
2760.00000,126.20260
2762.00000,109.21182
2764.00000,75.60069
2766.00000,162.94557
2768.00000,117.23190
2770.00000,108.56742
2772.00000,141.15198
2774.00000,153.90210
2776.00000,151.47929
2778.00000,119.24075
2780.00000,155.53685
2782.00000,163.04997
2784.00000,81.64838
2786.00000,141.42458
2788.00000,160.09125
2790.00000,92.41701
2792.00000,71.91247
2794.00000,161.39912
2796.00000,161.00090
2798.00000,92.62840
2800.00000,78.11565
2802.00000,127.75532
2804.00000,111.74423
2806.00000,126.48923
2808.00000,125.53387
2810.00000,81.24751
2812.00000,117.12587
2814.00000,113.35143
2816.00000,69.20604
2818.00000,53.91891
2820.00000,73.08948
2822.00000,50.30197
2824.00000,51.07849
2826.00000,73.42213
2828.00000,75.36998
2830.00000,78.07987
2832.00000,40.21868
2834.00000,31.20164
2836.00000,81.69272
2838.00000,109.55764
2840.00000,88.38619
2842.00000,83.74733
2844.00000,106.01899
2846.00000,112.76803
2848.00000,113.38471
2850.00000,148.52588
2852.00000,135.81303
2854.00000,83.51521
2856.00000,123.20734
2858.00000,110.27739
2860.00000,153.57146
2862.00000,227.92216
2864.00000,196.48315
2866.00000,216.38234
2868.00000,287.05862
2870.00000,299.91754
2872.00000,249.12526
2874.00000,259.28970
2876.00000,226.65117
2878.00000,197.66585
2880.00000,219.15118
2882.00000,225.46350
2884.00000,177.16046
2886.00000,133.25659
2888.00000,120.46359
2890.00000,123.47147
2892.00000,135.76051
2894.00000,113.26986
2896.00000,103.19951
2898.00000,127.50721
2900.00000,139.05568
2902.00000,169.46841
2904.00000,118.06244
2906.00000,127.45184
2908.00000,274.92389
2910.00000,145.21817
2912.00000,105.15292
2914.00000,184.22737
2916.00000,161.86259
2918.00000,93.05163
2920.00000,193.98738
2922.00000,172.26759
2924.00000,14.98666
2926.00000,46.86513
2928.00000,114.23705
2930.00000,131.93571
2932.00000,112.59097
2934.00000,99.28024
2936.00000,107.04908
2938.00000,99.33334
2940.00000,88.92305
2942.00000,140.64128
2944.00000,215.43396
2946.00000,68.00318
2948.00000,111.07675
2950.00000,272.32553
2952.00000,194.46814
2954.00000,136.23531
2956.00000,142.31779
2958.00000,162.50604
2960.00000,158.23956
2962.00000,149.48450
2964.00000,211.55096
2966.00000,212.52290
2968.00000,189.80368
2970.00000,255.09779
2972.00000,202.37721
2974.00000,143.97806
2976.00000,158.95049
2978.00000,218.11749
2980.00000,274.24017
2982.00000,244.93636
2984.00000,148.88185
2986.00000,126.70274
2988.00000,204.73784
2990.00000,82.79420
2992.00000,87.85285
2994.00000,180.98178
2996.00000,140.60170
2998.00000,179.14680
3000.00000,151.83771
3002.00000,96.35210
3004.00000,130.61372
3006.00000,220.50458
3008.00000,235.33102
3010.00000,193.49377
3012.00000,155.26320
3014.00000,190.55550
3016.00000,330.62183
3018.00000,188.27435
3020.00000,59.83667
3022.00000,185.79544
3024.00000,157.70767
3026.00000,129.86826
3028.00000,168.58606
3030.00000,179.67957
3032.00000,126.27837
3034.00000,162.26944
3036.00000,115.17230
3038.00000,101.98325
3040.00000,232.87433
3042.00000,225.10986
3044.00000,195.02541
3046.00000,256.57285
3048.00000,346.47690
3050.00000,354.84250
3052.00000,387.45398
3054.00000,441.48062
3056.00000,388.58371
3058.00000,293.88470
3060.00000,459.91858
3062.00000,353.08435
3064.00000,265.73489
3066.00000,398.34866
3068.00000,279.64398
3070.00000,297.62326
3072.00000,318.49356
3074.00000,251.61351
3076.00000,279.79947
3078.00000,382.68188
3080.00000,285.47427
3082.00000,191.40002
3084.00000,270.37305
3086.00000,224.87202
3088.00000,261.65125
3090.00000,271.12558
3092.00000,186.47833
3094.00000,176.17207
3096.00000,236.65923
3098.00000,154.01898
3100.00000,64.42088
3102.00000,167.92526
3104.00000,240.40524
3106.00000,204.15944
3108.00000,189.71602
3110.00000,239.67973
3112.00000,243.29095
3114.00000,254.81224
3116.00000,176.48582
3118.00000,130.32637
3120.00000,216.59016
3122.00000,137.57996
3124.00000,253.98787
3126.00000,241.30589
3128.00000,24.07401
3130.00000,235.85071
3132.00000,191.48470
3134.00000,165.54460
3136.00000,335.52072
3138.00000,357.32462
3140.00000,296.90616
3142.00000,234.54817
3144.00000,278.78360
3146.00000,368.36414
3148.00000,268.16013
3150.00000,235.14925
3152.00000,210.88167
3154.00000,178.31073
3156.00000,247.03993
3158.00000,138.58316
3160.00000,182.57851
3162.00000,285.41315
3164.00000,205.32318
3166.00000,302.78992
3168.00000,246.82460
3170.00000,242.47763
3172.00000,343.72818
3174.00000,169.65335
3176.00000,273.62045
3178.00000,354.02936
3180.00000,247.68866
3182.00000,201.32275
3184.00000,156.29091
3186.00000,224.54721
3188.00000,291.69778
3190.00000,289.49420
3192.00000,374.11926
3194.00000,275.02719
3196.00000,302.24942
3198.00000,484.81500
3200.00000,408.70190
