300.00000,47.99377
302.00000,28.13014
304.00000,24.37657
306.00000,41.31256
308.00000,58.61950
310.00000,61.04799
312.00000,53.25134
314.00000,46.77056
316.00000,55.44307
318.00000,59.20613
320.00000,41.42893
322.00000,37.46489
324.00000,58.98506
326.00000,65.96633
328.00000,55.21998
330.00000,63.19409
332.00000,49.81451
334.00000,44.25624
336.00000,62.96760
338.00000,80.28657
340.00000,70.17078
342.00000,43.16145
344.00000,31.41648
346.00000,39.92390
348.00000,41.65091
350.00000,32.58345
352.00000,29.54436
354.00000,38.79995
356.00000,43.99255
358.00000,27.10688
360.00000,16.97190
362.00000,19.60145
364.00000,24.20783
366.00000,22.42402
368.00000,10.02815
370.00000,3.17114
372.00000,10.48163
374.00000,23.46292
376.00000,28.14898
378.00000,24.29404
380.00000,20.43616
382.00000,21.81197
384.00000,26.96119
386.00000,33.20004
388.00000,30.11153
390.00000,26.34124
392.00000,32.25902
394.00000,34.76296
396.00000,23.93779
398.00000,15.16072
400.00000,27.60158
402.00000,52.17878
404.00000,47.66971
406.00000,29.98209
408.00000,25.71350
410.00000,36.34291
412.00000,44.59770
414.00000,58.19282
416.00000,74.91511
418.00000,74.61943
420.00000,59.09499
422.00000,84.91803
424.00000,120.78063
426.00000,133.20332
428.00000,132.60945
430.00000,147.88907
432.00000,161.76619
434.00000,174.95212
436.00000,188.30162
438.00000,196.73454
440.00000,211.50101
442.00000,233.80978
444.00000,247.93666
446.00000,240.60765
448.00000,220.79320
450.00000,211.83981
452.00000,217.65430
454.00000,215.00105
456.00000,188.53151
458.00000,167.52879
460.00000,147.77248
462.00000,127.61223
464.00000,114.51993
466.00000,107.42464
468.00000,90.08746
470.00000,86.78787
472.00000,113.05025
474.00000,169.87003
476.00000,287.56100
478.00000,491.81619
480.00000,733.71063
482.00000,898.37067
484.00000,887.40637
486.00000,733.89362
488.00000,534.61639
490.00000,372.65900
492.00000,271.51065
494.00000,200.41776
496.00000,152.61670
498.00000,115.42464
500.00000,80.83727
502.00000,62.33803
504.00000,71.80013
506.00000,77.04852
508.00000,63.66183
510.00000,51.04371
512.00000,53.61884
514.00000,69.09511
516.00000,67.72728
518.00000,41.56134
520.00000,22.83985
522.00000,18.99108
524.00000,26.46317
526.00000,31.78855
528.00000,25.15864
530.00000,16.62717
532.00000,15.29548
534.00000,15.77631
536.00000,15.34771
538.00000,19.79354
540.00000,20.27501
542.00000,20.52913
544.00000,22.39300
546.00000,21.86533
548.00000,22.34766
550.00000,41.56179
552.00000,55.61051
554.00000,52.48861
556.00000,53.14237
558.00000,38.27779
560.00000,25.91835
562.00000,25.87008
564.00000,29.80046
566.00000,37.93646
568.00000,48.03186
570.00000,54.69677
572.00000,66.16581
574.00000,88.99368
576.00000,89.25476
578.00000,107.72170
580.00000,151.64754
582.00000,185.66139
584.00000,205.75249
586.00000,235.54553
588.00000,279.71448
590.00000,324.90067
592.00000,353.02939
594.00000,349.88162
596.00000,333.93491
598.00000,308.23309
600.00000,265.78821
602.00000,221.43304
604.00000,187.81277
606.00000,178.64040
608.00000,180.09497
610.00000,166.70793
612.00000,164.34735
614.00000,175.18408
616.00000,174.20369
618.00000,159.22205
620.00000,167.50874
622.00000,167.07321
624.00000,141.76939
626.00000,111.75947
628.00000,99.13665
630.00000,84.60754
632.00000,66.15975
634.00000,53.90403
636.00000,57.03113
638.00000,70.84888
640.00000,66.84926
642.00000,62.67453
644.00000,56.14366
646.00000,22.82621
648.00000,4.59707
650.00000,5.34197
652.00000,11.36419
654.00000,13.67753
656.00000,12.86254
658.00000,14.46664
660.00000,15.30155
662.00000,20.06898
664.00000,40.66445
666.00000,72.06412
668.00000,106.62030
670.00000,169.26332
672.00000,308.25348
674.00000,562.33966
676.00000,930.05780
678.00000,1292.43018
680.00000,1483.86340
682.00000,1397.21375
684.00000,1071.43762
686.00000,727.72583
688.00000,479.21872
690.00000,330.21881
692.00000,278.37817
694.00000,251.97580
696.00000,229.57875
698.00000,201.84807
700.00000,164.70035
702.00000,157.37437
704.00000,146.81985
706.00000,111.69218
708.00000,73.24890
710.00000,63.55861
712.00000,74.06165
714.00000,91.95908
716.00000,95.70099
718.00000,76.58246
720.00000,67.99252
722.00000,61.01592
724.00000,53.34299
726.00000,44.18692
728.00000,30.26324
730.00000,54.30322
732.00000,96.60003
734.00000,151.48445
736.00000,253.80563
738.00000,436.16977
740.00000,791.04419
742.00000,1417.92590
744.00000,2190.42529
746.00000,2694.53174
748.00000,2621.25610
750.00000,2036.84521
752.00000,1279.90051
754.00000,694.79681
756.00000,379.70609
758.00000,240.65674
760.00000,175.80559
762.00000,136.83488
764.00000,119.50468
766.00000,136.47902
768.00000,153.79033
770.00000,180.73833
772.00000,239.38811
774.00000,270.85339
776.00000,283.62677
778.00000,286.15613
780.00000,269.36502
782.00000,229.71811
784.00000,187.95459
786.00000,148.63806
788.00000,110.30498
790.00000,75.50650
792.00000,50.87922
794.00000,47.74582
796.00000,47.71347
798.00000,36.60603
800.00000,26.61239
802.00000,17.17103
804.00000,8.85025
806.00000,2.93823
808.00000,2.46089
810.00000,11.18787
812.00000,16.81305
814.00000,15.47940
816.00000,11.40978
818.00000,9.92956
820.00000,18.18713
822.00000,37.92657
824.00000,68.05859
826.00000,110.86259
828.00000,166.89024
830.00000,204.78456
832.00000,226.81841
834.00000,241.41460
836.00000,231.32030
838.00000,185.67593
840.00000,162.04649
842.00000,184.21976
844.00000,214.87833
846.00000,214.39851
848.00000,198.41713
850.00000,187.12294
852.00000,167.66875
854.00000,126.28004
856.00000,116.71065
858.00000,102.77049
860.00000,77.81835
862.00000,67.74812
864.00000,64.09731
866.00000,86.74667
868.00000,81.13968
870.00000,54.21473
872.00000,73.99463
874.00000,58.88173
876.00000,42.33954
878.00000,49.50861
880.00000,52.39060
882.00000,32.74624
884.00000,23.35735
886.00000,26.30955
888.00000,28.44314
890.00000,28.32707
892.00000,28.82168
894.00000,33.61480
896.00000,37.66902
898.00000,31.30949
900.00000,14.96783
902.00000,8.88036
904.00000,7.97626
906.00000,3.42600
908.00000,0.19000
910.00000,3.91294
912.00000,24.08404
914.00000,29.25172
916.00000,8.16933
918.00000,10.23162
920.00000,4.37718
922.00000,8.93301
924.00000,26.96316
926.00000,25.25461
928.00000,20.56531
930.00000,34.64682
932.00000,42.99960
934.00000,30.45709
936.00000,34.87095
938.00000,43.82858
940.00000,60.70718
942.00000,88.72112
944.00000,126.14010
946.00000,197.24411
948.00000,330.12509
950.00000,497.38007
952.00000,623.21777
954.00000,637.03357
956.00000,532.70471
958.00000,380.76065
960.00000,240.03171
962.00000,130.63763
964.00000,77.24786
966.00000,55.31104
968.00000,35.31730
970.00000,19.40293
972.00000,29.37735
974.00000,39.36197
976.00000,29.23850
978.00000,23.65834
980.00000,40.95620
982.00000,27.31411
984.00000,31.51617
986.00000,43.23848
988.00000,39.18161
990.00000,54.15016
992.00000,64.27331
994.00000,88.76720
996.00000,142.72011
998.00000,205.76620
1000.00000,256.18716
1002.00000,309.20767
1004.00000,353.59708
1006.00000,362.73883
1008.00000,329.09747
1010.00000,260.17075
1012.00000,185.06036
1014.00000,122.24570
1016.00000,74.37997
1018.00000,48.31707
1020.00000,40.94031
1022.00000,40.83678
1024.00000,44.87118
1026.00000,59.31438
1028.00000,72.67421
1030.00000,88.52385
1032.00000,93.98733
1034.00000,84.67901
1036.00000,100.62154
1038.00000,99.41985
1040.00000,86.48413
1042.00000,77.91460
1044.00000,54.80256
1046.00000,39.23600
1048.00000,25.28559
1050.00000,14.85199
1052.00000,14.91853
1054.00000,7.74912
1056.00000,9.15765
1058.00000,14.37757
1060.00000,10.73652
1062.00000,6.78253
1064.00000,19.88149
1066.00000,22.08899
1068.00000,12.01089
1070.00000,9.10459
1072.00000,1.75664
1074.00000,13.12151
1076.00000,31.02482
1078.00000,42.85406
1080.00000,58.59232
1082.00000,60.51301
1084.00000,88.81203
1086.00000,115.21394
1088.00000,95.19487
1090.00000,89.20968
1092.00000,81.30086
1094.00000,65.81782
1096.00000,64.62280
1098.00000,94.25771
1100.00000,140.71211
1102.00000,228.42607
1104.00000,371.10464
1106.00000,531.10059
1108.00000,627.62915
1110.00000,606.60657
1112.00000,494.54175
1114.00000,358.55457
1116.00000,243.78543
1118.00000,151.29918
1120.00000,118.48447
1122.00000,134.00974
1124.00000,160.53540
1126.00000,207.98898
1128.00000,269.98608
1130.00000,335.06400
1132.00000,404.43216
1134.00000,501.18909
1136.00000,664.82867
1138.00000,923.41162
1140.00000,1264.05664
1142.00000,1551.80237
1144.00000,1563.09009
1146.00000,1342.06677
1148.00000,993.01563
1150.00000,645.73053
1152.00000,420.16229
1154.00000,315.17957
1156.00000,274.64084
1158.00000,242.37842
1160.00000,196.92654
1162.00000,151.59073
1164.00000,103.83916
1166.00000,69.56025
1168.00000,51.69843
1170.00000,39.97343
1172.00000,53.76591
1174.00000,70.59412
1176.00000,124.85777
1178.00000,251.01685
1180.00000,397.43640
1182.00000,536.03455
1184.00000,627.58917
1186.00000,659.05164
1188.00000,657.68567
1190.00000,650.85150
1192.00000,660.00861
1194.00000,678.68005
1196.00000,674.36890
1198.00000,628.24066
1200.00000,595.81494
1202.00000,572.91351
1204.00000,567.84436
1206.00000,600.93787
1208.00000,612.93475
1210.00000,652.00714
1212.00000,696.95184
1214.00000,703.72699
1216.00000,700.31830
1218.00000,654.28931
1220.00000,567.02661
1222.00000,458.55148
1224.00000,347.42218
1226.00000,255.75275
1228.00000,170.37846
1230.00000,102.61864
1232.00000,69.40273
1234.00000,57.42252
1236.00000,55.00789
1238.00000,37.82695
1240.00000,11.45336
1242.00000,2.35859
1244.00000,0.76194
1246.00000,-1.96120
1248.00000,4.47554
1250.00000,15.69924
1252.00000,6.54112
1254.00000,5.04831
1256.00000,5.36092
1258.00000,5.25366
1260.00000,17.17288
1262.00000,30.03417
1264.00000,30.56252
1266.00000,14.36871
1268.00000,0.14071
1270.00000,19.09285
1272.00000,58.86990
1274.00000,61.47525
1276.00000,50.23953
1278.00000,74.62071
1280.00000,64.28368
1282.00000,60.76583
1284.00000,80.76318
1286.00000,111.96627
1288.00000,152.81026
1290.00000,181.22949
1292.00000,222.20966
1294.00000,289.12637
1296.00000,369.76007
1298.00000,468.53604
1300.00000,593.85992
1302.00000,752.69440
1304.00000,917.83087
1306.00000,1018.78589
1308.00000,1002.57611
1310.00000,912.04938
1312.00000,794.26404
1314.00000,676.88678
1316.00000,606.63495
1318.00000,586.98254
1320.00000,616.96057
1322.00000,677.74884
1324.00000,727.35370
1326.00000,759.76813
1328.00000,856.98322
1330.00000,1055.64954
1332.00000,1359.50330
1334.00000,1835.63660
1336.00000,2489.57178
1338.00000,3262.84839
1340.00000,3890.32666
1342.00000,3998.98340
1344.00000,3573.76782
1346.00000,2723.69531
1348.00000,1798.77588
1350.00000,1151.50964
1352.00000,761.46771
1354.00000,522.72552
1356.00000,388.52502
1358.00000,314.60815
1360.00000,239.59312
1362.00000,194.27974
1364.00000,202.35687
1366.00000,229.11949
1368.00000,229.84346
1370.00000,218.09251
1372.00000,205.81671
1374.00000,183.46254
1376.00000,147.12793
1378.00000,109.74796
1380.00000,74.49812
1382.00000,52.92045
1384.00000,44.29928
1386.00000,33.18899
1388.00000,11.20165
1390.00000,1.20846
1392.00000,0.34489
1394.00000,2.13442
1396.00000,11.94150
1398.00000,17.96079
1400.00000,17.04661
1402.00000,19.69775
1404.00000,32.09151
1406.00000,43.13409
1408.00000,54.04869
1410.00000,72.11388
1412.00000,82.94507
1414.00000,75.90715
1416.00000,95.69157
1418.00000,71.08640
1420.00000,41.29283
1422.00000,81.25505
1424.00000,122.07182
1426.00000,136.35583
1428.00000,181.32690
1430.00000,221.71262
1432.00000,182.85521
1434.00000,218.23698
1436.00000,258.42645
1438.00000,305.12830
1440.00000,432.70865
1442.00000,616.11847
1444.00000,826.72931
1446.00000,1147.65674
1448.00000,1547.18384
1450.00000,1820.02026
1452.00000,1822.17712
1454.00000,1496.74951
1456.00000,1036.12866
1458.00000,686.96515
1460.00000,475.57452
1462.00000,314.55121
1464.00000,218.21327
1466.00000,187.91534
1468.00000,161.35037
1470.00000,130.97226
1472.00000,124.85867
1474.00000,131.74585
1476.00000,128.26547
1478.00000,125.71214
1480.00000,122.91559
1482.00000,106.06650
1484.00000,78.16947
1486.00000,56.95392
1488.00000,40.77675
1490.00000,22.50607
1492.00000,11.09118
1494.00000,14.05937
1496.00000,21.57056
1498.00000,36.74453
1500.00000,72.53200
1502.00000,120.35311
1504.00000,158.35629
1506.00000,200.27635
1508.00000,294.22089
1510.00000,388.18961
1512.00000,484.73224
1514.00000,713.93066
1516.00000,1006.41632
1518.00000,1444.81030
1520.00000,2159.36377
1522.00000,3298.50415
1524.00000,5051.01904
1526.00000,7082.94434
1528.00000,8605.67676
1530.00000,8791.88770
1532.00000,7452.39941
1534.00000,5632.61133
1536.00000,4046.92920
1538.00000,2920.15259
1540.00000,2183.15405
1542.00000,1639.86438
1544.00000,1254.20886
1546.00000,977.92847
1548.00000,764.48492
1550.00000,615.59552
1552.00000,491.81482
1554.00000,434.32822
1556.00000,380.26138
1558.00000,255.67908
1560.00000,201.26242
1562.00000,156.11911
1564.00000,96.22578
1566.00000,62.03893
1568.00000,66.71229
1570.00000,72.83651
1572.00000,92.02116
1574.00000,106.93497
1576.00000,100.80183
1578.00000,130.69160
1580.00000,131.82391
1582.00000,111.88100
1584.00000,105.60676
1586.00000,106.85857
1588.00000,149.44795
1590.00000,177.65547
1592.00000,173.02890
1594.00000,178.90729
1596.00000,201.78204
1598.00000,191.83009
1600.00000,185.84535
1602.00000,201.22083
1604.00000,204.36746
1606.00000,281.42438
1608.00000,261.70483
1610.00000,206.27298
1612.00000,241.09233
1614.00000,141.15686
1616.00000,126.86568
1618.00000,130.56859
1620.00000,68.99887
1622.00000,75.31763
1624.00000,52.12653
1626.00000,50.93997
1628.00000,61.64714
1630.00000,26.16331
1632.00000,12.16331
1634.00000,34.00237
1636.00000,26.13425
1638.00000,1.07714
1640.00000,40.43611
1642.00000,46.44267
1644.00000,18.14539
1646.00000,14.16237
1648.00000,35.66373
1650.00000,13.67908
1652.00000,35.95275
1654.00000,41.89846
1656.00000,6.23339
1658.00000,14.74783
1660.00000,2.04181
1662.00000,21.64798
1664.00000,44.14097
1666.00000,12.36022
1668.00000,0.46163
1670.00000,-0.70268
1672.00000,2.23294
1674.00000,7.94824
1676.00000,9.79018
1678.00000,14.20631
1680.00000,8.21965
1682.00000,-0.76764
1684.00000,4.20618
1686.00000,10.86040
1688.00000,-5.53497
1690.00000,26.65943
1692.00000,77.51373
1694.00000,38.71593
1696.00000,25.82874
1698.00000,18.14265
1700.00000,3.22973
1702.00000,12.27106
1704.00000,38.16449
1706.00000,28.44213
1708.00000,42.73664
1710.00000,60.82498
1712.00000,14.72448
1714.00000,58.79680
1716.00000,61.48075
1718.00000,36.03501
1720.00000,51.74364
1722.00000,17.62685
1724.00000,69.42292
1726.00000,99.90284
1728.00000,71.95000
1730.00000,82.30289
1732.00000,16.01272
1734.00000,46.19457
1736.00000,100.39583
1738.00000,48.26454
1740.00000,45.30770
1742.00000,82.38614
1744.00000,77.81790
1746.00000,33.12569
1748.00000,12.94232
1750.00000,2.77699
1752.00000,58.58720
1754.00000,81.02431
1756.00000,46.85265
1758.00000,118.71626
1760.00000,60.45631
1762.00000,53.26861
1764.00000,117.62829
1766.00000,50.58424
1768.00000,55.20065
1770.00000,56.68016
1772.00000,31.08867
1774.00000,49.31880
1776.00000,98.90826
1778.00000,41.82254
1780.00000,43.91390
1782.00000,93.66164
1784.00000,33.46590
1786.00000,59.49331
1788.00000,39.03344
1790.00000,39.52191
1792.00000,96.57308
1794.00000,20.06165
1796.00000,37.25148
1798.00000,34.98813
1800.00000,16.43474
1802.00000,99.79005
1804.00000,57.49211
1806.00000,33.05476
1808.00000,60.96231
1810.00000,60.43070
1812.00000,41.46360
1814.00000,63.09053
1816.00000,54.29554
1818.00000,30.53821
1820.00000,63.55745
1822.00000,70.87035
1824.00000,94.88958
1826.00000,113.97746
1828.00000,83.40527
1830.00000,48.04659
1832.00000,90.10165
1834.00000,96.05734
1836.00000,65.24847
1838.00000,85.43589
1840.00000,76.60233
1842.00000,118.14857
1844.00000,103.00849
1846.00000,49.87584
1848.00000,159.04643
1850.00000,125.86932
1852.00000,98.49415
1854.00000,145.78088
1856.00000,125.19703
1858.00000,86.66972
1860.00000,167.25970
1862.00000,175.11513
1864.00000,92.76582
1866.00000,178.89648
1868.00000,99.14663
1870.00000,87.99940
1872.00000,124.66698
1874.00000,37.05843
1876.00000,136.35193
1878.00000,102.08669
1880.00000,66.97102
1882.00000,122.36265
1884.00000,42.31607
1886.00000,169.25536
1888.00000,165.64238
1890.00000,94.60642
1892.00000,184.31757
1894.00000,24.21386
1896.00000,93.86687
1898.00000,203.45010
1900.00000,127.97388
1902.00000,149.44769
1904.00000,161.02026
1906.00000,138.94342
1908.00000,113.79755
1910.00000,123.40234
1912.00000,183.48586
1914.00000,141.58014
1916.00000,114.81350
1918.00000,149.28534
1920.00000,94.80971
1922.00000,80.25739
1924.00000,112.39165
1926.00000,119.71723
1928.00000,106.06149
1930.00000,156.54259
1932.00000,128.84393
1934.00000,124.44165
1936.00000,162.38927
1938.00000,98.30299
1940.00000,105.83632
1942.00000,118.32177
1944.00000,91.60308
1946.00000,72.68335
1948.00000,78.68314
1950.00000,129.62404
1952.00000,148.92339
1954.00000,105.31908
1956.00000,78.76167
1958.00000,112.59162
1960.00000,117.52196
1962.00000,99.94012
1964.00000,119.78518
1966.00000,134.68184
1968.00000,105.12016
1970.00000,94.52692
1972.00000,102.11218
1974.00000,71.17587
1976.00000,91.94900
1978.00000,42.59250
1980.00000,22.16485
1982.00000,106.91340
1984.00000,64.97220
1986.00000,50.51776
1988.00000,58.64689
1990.00000,46.81933
1992.00000,54.51019
1994.00000,60.10372
1996.00000,54.36745
1998.00000,33.83599
2000.00000,7.28115
2002.00000,12.17787
2004.00000,17.41855
2006.00000,13.62868
2008.00000,12.34371
2010.00000,27.69249
2012.00000,42.58372
2014.00000,46.71708
2016.00000,52.92486
2018.00000,69.31630
2020.00000,70.82979
2022.00000,68.51206
2024.00000,75.84962
2026.00000,67.55269
2028.00000,60.84066
2030.00000,54.02160
2032.00000,41.84365
2034.00000,34.04381
2036.00000,38.37383
2038.00000,42.07444
2040.00000,30.98832
2042.00000,15.03120
2044.00000,22.54285
2046.00000,23.30703
2048.00000,19.57272
2050.00000,27.79851
2052.00000,37.72385
2054.00000,27.59186
2056.00000,15.94006
2058.00000,14.01698
2060.00000,17.33325
2062.00000,34.52079
2064.00000,48.74324
2066.00000,40.40750
2068.00000,23.54461
2070.00000,36.31916
2072.00000,53.66514
2074.00000,59.24742
2076.00000,57.15742
2078.00000,58.77372
2080.00000,69.97639
2082.00000,93.85892
2084.00000,115.74000
2086.00000,122.18150
2088.00000,123.59139
2090.00000,125.33273
2092.00000,114.39722
2094.00000,86.89777
2096.00000,63.52993
2098.00000,61.28561
2100.00000,44.39452
2102.00000,29.46184
2104.00000,46.17281
2106.00000,40.29017
2108.00000,31.92741
2110.00000,43.33950
2112.00000,56.69154
2114.00000,45.62995
2116.00000,56.68383
2118.00000,70.28866
2120.00000,61.99826
2122.00000,48.34056
2124.00000,52.60388
2126.00000,54.12140
2128.00000,50.81931
2130.00000,52.04547
2132.00000,47.33774
2134.00000,33.43435
2136.00000,30.60998
2138.00000,33.61169
2140.00000,19.29579
2142.00000,18.26715
2144.00000,19.40038
2146.00000,14.46349
2148.00000,14.67425
2150.00000,24.37346
2152.00000,19.95445
2154.00000,31.48642
2156.00000,49.50906
2158.00000,22.85213
2160.00000,42.45150
2162.00000,46.69443
2164.00000,28.95242
2166.00000,46.21960
2168.00000,43.55632
2170.00000,45.39902
2172.00000,59.31066
2174.00000,61.21163
2176.00000,41.83484
2178.00000,35.10751
2180.00000,45.05223
2182.00000,53.38975
2184.00000,48.46104
2186.00000,40.07508
2188.00000,36.24483
2190.00000,54.35015
2192.00000,77.28077
2194.00000,57.11506
2196.00000,86.36806
2198.00000,111.29077
2200.00000,91.83942
2202.00000,96.61858
2204.00000,105.74268
2206.00000,119.24406
2208.00000,127.98729
2210.00000,118.96702
2212.00000,109.68730
2214.00000,104.72560
2216.00000,96.71861
2218.00000,80.87351
2220.00000,64.52822
2222.00000,58.86969
2224.00000,54.98714
2226.00000,61.61418
2228.00000,79.49416
2230.00000,54.64950
2232.00000,40.15687
2234.00000,32.92138
2236.00000,19.78823
2238.00000,43.00218
2240.00000,27.67550
2242.00000,18.55920
2244.00000,39.14005
2246.00000,35.37644
2248.00000,39.59427
2250.00000,55.68751
2252.00000,63.15845
2254.00000,57.87133
2256.00000,64.60614
2258.00000,63.66048
2260.00000,70.33876
2262.00000,98.03885
2264.00000,123.96656
2266.00000,140.85675
2268.00000,175.10567
2270.00000,227.45943
2272.00000,271.50568
2274.00000,297.40991
2276.00000,285.08893
2278.00000,250.87231
2280.00000,210.61208
2282.00000,154.50499
2284.00000,120.36533
2286.00000,117.44427
2288.00000,106.20773
2290.00000,66.80132
2292.00000,72.78737
2294.00000,74.37338
2296.00000,70.39629
2298.00000,82.50596
2300.00000,69.09714
2302.00000,76.72376
2304.00000,89.18319
2306.00000,73.85677
2308.00000,55.93607
2310.00000,86.27161
2312.00000,77.49308
2314.00000,34.07270
2316.00000,35.69646
2318.00000,49.96883
2320.00000,33.45959
2322.00000,10.13957
2324.00000,18.83215
2326.00000,41.79663
2328.00000,22.14794
2330.00000,10.35052
2332.00000,21.27362
2334.00000,17.28015
2336.00000,27.48271
2338.00000,23.81443
2340.00000,12.04008
2342.00000,25.41932
2344.00000,52.77545
2346.00000,19.07698
2348.00000,7.50893
2350.00000,31.36069
2352.00000,3.72885
2354.00000,18.77615
2356.00000,43.47260
2358.00000,41.75529
2360.00000,32.90200
2362.00000,35.11186
2364.00000,11.44251
2366.00000,8.46338
2368.00000,32.53626
2370.00000,13.92672
2372.00000,17.21933
2374.00000,33.19550
2376.00000,25.72895
2378.00000,0.79808
2380.00000,5.95213
2382.00000,31.88470
2384.00000,43.18202
2386.00000,21.65351
2388.00000,2.84068
2390.00000,65.02007
2392.00000,70.34944
2394.00000,9.95019
2396.00000,36.24391
2398.00000,80.39002
2400.00000,51.95644
2402.00000,21.29629
2404.00000,65.81819
2406.00000,88.39074
2408.00000,58.61966
2410.00000,63.96898
2412.00000,103.77534
2414.00000,78.71114
2416.00000,71.40298
2418.00000,98.14205
2420.00000,110.53918
2422.00000,93.85920
2424.00000,109.57790
2426.00000,105.98251
2428.00000,94.11635
2430.00000,95.18378
2432.00000,77.87044
2434.00000,65.04187
2436.00000,57.65573
2438.00000,50.90787
2440.00000,44.97124
2442.00000,32.67097
2444.00000,20.72147
2446.00000,17.02907
2448.00000,25.32575
2450.00000,40.28617
2452.00000,36.82515
2454.00000,23.86421
2456.00000,20.26654
2458.00000,23.38789
2460.00000,15.89348
2462.00000,30.62782
2464.00000,44.70708
2466.00000,28.85191
2468.00000,35.24457
2470.00000,49.68990
2472.00000,54.25848
2474.00000,42.26278
2476.00000,26.42787
2478.00000,52.10260
2480.00000,57.76004
2482.00000,41.02557
2484.00000,50.43828
2486.00000,50.85581
2488.00000,73.12326
2490.00000,58.52563
2492.00000,1.62198
2494.00000,21.11663
2496.00000,35.06044
2498.00000,10.88881
2500.00000,6.57659
2502.00000,47.61164
2504.00000,21.14347
2506.00000,27.78457
2508.00000,62.65045
2510.00000,47.34135
2512.00000,21.39366
2514.00000,21.83379
2516.00000,46.47365
2518.00000,55.72229
2520.00000,30.00798
2522.00000,40.04236
2524.00000,60.36919
2526.00000,53.36543
2528.00000,36.58915
2530.00000,55.69155
2532.00000,67.93578
2534.00000,56.23170
2536.00000,39.45924
2538.00000,31.29090
2540.00000,22.16435
2542.00000,32.05463
2544.00000,50.17687
2546.00000,39.90795
2548.00000,10.70605
2550.00000,-10.62229
2552.00000,17.05244
2554.00000,58.07318
2556.00000,18.72769
2558.00000,31.48151
2560.00000,54.11924
2562.00000,26.91575
2564.00000,1.13851
2566.00000,11.41319
2568.00000,44.62992
2570.00000,56.95803
2572.00000,39.00235
2574.00000,40.61150
2576.00000,33.54270
2578.00000,35.41405
2580.00000,39.95419
2582.00000,15.30720
2584.00000,55.56139
2586.00000,54.33679
2588.00000,29.53020
2590.00000,74.39933
2592.00000,63.03213
2594.00000,43.12179
2596.00000,58.51168
2598.00000,75.27115
2600.00000,55.89805
2602.00000,82.90854
2604.00000,60.73852
2606.00000,-2.26847
2608.00000,28.42393
2610.00000,81.18672
2612.00000,59.91202
2614.00000,50.89159
2616.00000,93.31552
2618.00000,25.92818
2620.00000,37.77119
2622.00000,59.96666
2624.00000,24.75785
2626.00000,25.20394
2628.00000,-3.38949
2630.00000,46.69970
2632.00000,89.33060
2634.00000,31.14712
2636.00000,97.99020
2638.00000,71.13505
2640.00000,12.90057
2642.00000,52.23818
2644.00000,79.02675
2646.00000,75.01498
2648.00000,81.26144
2650.00000,98.95818
2652.00000,92.62859
2654.00000,78.12862
2656.00000,110.27315
2658.00000,138.75317
2660.00000,127.45267
2662.00000,157.85364
2664.00000,200.60405
2666.00000,194.47057
2668.00000,181.86153
2670.00000,232.67355
2672.00000,228.54265
2674.00000,221.68446
2676.00000,224.22263
2678.00000,196.70247
2680.00000,167.07712
2682.00000,140.49632
2684.00000,126.09136
2686.00000,113.06078
2688.00000,89.35416
2690.00000,111.98866
2692.00000,98.91117
2694.00000,54.08774
2696.00000,74.69099
2698.00000,139.04601
2700.00000,115.99040
2702.00000,77.86322
2704.00000,100.90533
2706.00000,85.10233
2708.00000,69.92249
2710.00000,126.52158
2712.00000,144.24615
2714.00000,32.44810
2716.00000,84.54147
2718.00000,135.09378
2720.00000,83.23409
2722.00000,51.77659
2724.00000,123.95061
2726.00000,60.05432
2728.00000,22.40838
2730.00000,106.69781
2732.00000,109.26776
2734.00000,75.14712
2736.00000,66.32966
2738.00000,65.03382
2740.00000,44.19540
2742.00000,56.82333
2744.00000,94.79572
2746.00000,71.40806
2748.00000,27.07921
2750.00000,96.38515
2752.00000,77.79749
2754.00000,28.78737
2756.00000,52.54635
2758.00000,91.96909
2760.00000,29.96023
2762.00000,46.82553
2764.00000,82.35479
2766.00000,29.81647
2768.00000,32.91765
2770.00000,64.12385
2772.00000,37.64336
2774.00000,33.33909
2776.00000,140.83766
2778.00000,89.54520
2780.00000,42.40322
2782.00000,69.56654
2784.00000,81.14674
2786.00000,85.43106
2788.00000,56.09496
2790.00000,48.04323
2792.00000,86.98862
2794.00000,112.85481
2796.00000,117.95677
2798.00000,83.16705
2800.00000,70.75531
2802.00000,117.77041
2804.00000,94.04538
2806.00000,73.83002
2808.00000,101.94049
2810.00000,116.59259
2812.00000,67.01475
2814.00000,93.50404
2816.00000,106.90556
2818.00000,71.26942
2820.00000,80.37332
2822.00000,86.72654
2824.00000,36.86686
2826.00000,33.51131
2828.00000,101.00430
2830.00000,54.57307
2832.00000,61.13555
2834.00000,83.55931
2836.00000,43.09612
2838.00000,15.25693
2840.00000,69.97721
2842.00000,66.78893
2844.00000,35.51192
2846.00000,75.71896
2848.00000,62.11217
2850.00000,59.77528
2852.00000,61.59174
2854.00000,58.19040
2856.00000,112.29430
2858.00000,171.64323
2860.00000,122.57354
2862.00000,74.19928
2864.00000,178.56326
2866.00000,224.06436
2868.00000,183.02734
2870.00000,194.32106
2872.00000,254.29903
2874.00000,179.03960
2876.00000,193.46141
2878.00000,157.13315
2880.00000,74.10947
2882.00000,152.54167
2884.00000,131.67766
2886.00000,47.29854
2888.00000,67.25812
2890.00000,151.36272
2892.00000,54.04143
2894.00000,58.69862
2896.00000,101.38740
2898.00000,61.76310
2900.00000,65.42162
2902.00000,109.95898
2904.00000,135.18179
2906.00000,112.91252
2908.00000,71.57156
2910.00000,57.33127
2912.00000,66.19174
2914.00000,91.79066
2916.00000,114.73060
2918.00000,108.83094
2920.00000,113.00803
2922.00000,88.04049
2924.00000,78.08445
2926.00000,137.88620
2928.00000,109.24953
2930.00000,124.28818
2932.00000,183.41661
2934.00000,161.78244
2936.00000,82.58609
2938.00000,132.29744
2940.00000,171.17720
2942.00000,137.18095
2944.00000,174.17151
2946.00000,159.60660
2948.00000,175.10762
2950.00000,151.70627
2952.00000,63.85689
2954.00000,185.88158
2956.00000,133.97131
2958.00000,49.25526
2960.00000,113.74200
2962.00000,96.66032
2964.00000,113.81628
2966.00000,105.45583
2968.00000,60.16024
2970.00000,84.72514
2972.00000,168.59058
2974.00000,129.13930
2976.00000,93.12357
2978.00000,168.10840
2980.00000,155.04832
2982.00000,184.96945
2984.00000,193.02951
2986.00000,113.37100
2988.00000,57.29343
2990.00000,132.70314
2992.00000,138.97719
2994.00000,119.48990
2996.00000,165.98790
2998.00000,82.75794
3000.00000,103.73359
3002.00000,143.30037
3004.00000,90.92240
3006.00000,83.37981
3008.00000,126.48254
3010.00000,91.77735
3012.00000,88.80664
3014.00000,196.57726
3016.00000,95.13988
3018.00000,138.65967
3020.00000,147.95987
3022.00000,34.41198
3024.00000,230.46852
3026.00000,265.37943
3028.00000,69.44910
3030.00000,45.42930
3032.00000,296.38470
3034.00000,103.36813
3036.00000,74.89889
3038.00000,260.60336
3040.00000,240.09872
3042.00000,160.51288
3044.00000,290.47183
3046.00000,285.04141
3048.00000,178.05196
3050.00000,394.34320
3052.00000,355.77005
3054.00000,316.59402
3056.00000,405.68155
3058.00000,435.60019
3060.00000,415.20212
3062.00000,265.22903
3064.00000,369.41330
3066.00000,579.32990
3068.00000,238.32637
3070.00000,251.32289
3072.00000,312.08157
3074.00000,192.77330
3076.00000,203.08444
3078.00000,238.14218
3080.00000,162.17909
3082.00000,176.65742
3084.00000,306.59741
3086.00000,197.72482
3088.00000,208.43579
3090.00000,203.19112
3092.00000,106.45686
3094.00000,125.97330
3096.00000,130.23636
3098.00000,80.91270
3100.00000,93.75088
3102.00000,195.68791
3104.00000,197.75441
3106.00000,179.40880
3108.00000,177.06841
3110.00000,188.79037
3112.00000,219.29153
3114.00000,199.98062
3116.00000,124.94827
3118.00000,166.13028
3120.00000,309.91928
3122.00000,134.79315
3124.00000,89.12283
3126.00000,128.50351
3128.00000,116.09119
3130.00000,278.57513
3132.00000,249.57727
3134.00000,194.23242
3136.00000,191.77631
3138.00000,124.75846
3140.00000,232.96086
3142.00000,201.79344
3144.00000,135.62598
3146.00000,258.53784
3148.00000,296.87106
3150.00000,199.19624
3152.00000,132.15028
3154.00000,136.98080
3156.00000,113.94332
3158.00000,176.73676
3160.00000,192.22180
3162.00000,194.84210
3164.00000,291.56079
3166.00000,322.85178
3168.00000,251.90605
3170.00000,126.84254
3172.00000,120.62681
3174.00000,329.04425
3176.00000,326.10983
3178.00000,191.39880
3180.00000,184.45729
3182.00000,288.90863
3184.00000,223.56000
3186.00000,267.15137
3188.00000,245.60818
3190.00000,105.29317
3192.00000,323.06250
3194.00000,383.23724
3196.00000,248.76846
3198.00000,191.11430
3200.00000,239.62105
