300.00000,34.20187
302.00000,33.27034
304.00000,29.80009
306.00000,26.85627
308.00000,27.81950
310.00000,26.59190
312.00000,17.48064
314.00000,15.96450
316.00000,9.17964
318.00000,6.53862
320.00000,17.31663
322.00000,14.50974
324.00000,26.67657
326.00000,38.53270
328.00000,33.10472
330.00000,29.30978
332.00000,35.08188
334.00000,36.63926
336.00000,33.83804
338.00000,34.66030
340.00000,35.12887
342.00000,44.42937
344.00000,56.76179
346.00000,58.51779
348.00000,48.69753
350.00000,48.18516
352.00000,66.31065
354.00000,79.78258
356.00000,70.44079
358.00000,59.67945
360.00000,50.36812
362.00000,42.64177
364.00000,37.45007
366.00000,33.39712
368.00000,26.23632
370.00000,18.03489
372.00000,24.68761
374.00000,40.55630
376.00000,31.66627
378.00000,34.31727
380.00000,43.63301
382.00000,41.31896
384.00000,37.22509
386.00000,52.14372
388.00000,60.64674
390.00000,54.23908
392.00000,49.28149
394.00000,54.90093
396.00000,61.38194
398.00000,64.54483
400.00000,67.89817
402.00000,73.31043
404.00000,75.08185
406.00000,81.20592
408.00000,93.18470
410.00000,108.19489
412.00000,131.19666
414.00000,169.31042
416.00000,215.99454
418.00000,256.79346
420.00000,284.84042
422.00000,310.88998
424.00000,340.33197
426.00000,384.03918
428.00000,441.31326
430.00000,489.06552
432.00000,520.21771
434.00000,554.19366
436.00000,594.53638
438.00000,628.37909
440.00000,665.62024
442.00000,704.26917
444.00000,727.18927
446.00000,724.28070
448.00000,705.22235
450.00000,675.51385
452.00000,636.28186
454.00000,586.58972
456.00000,526.90265
458.00000,463.16196
460.00000,406.57346
462.00000,351.30063
464.00000,296.47784
466.00000,260.11783
468.00000,240.97635
470.00000,244.72147
472.00000,267.77362
474.00000,337.42447
476.00000,556.09613
478.00000,935.77997
480.00000,1382.16394
482.00000,1709.26306
484.00000,1729.47803
486.00000,1446.51416
488.00000,1044.15186
490.00000,707.24146
492.00000,499.81833
494.00000,370.50525
496.00000,284.35965
498.00000,212.77153
500.00000,148.97943
502.00000,110.60320
504.00000,92.19895
506.00000,86.36539
508.00000,84.14387
510.00000,80.29308
512.00000,78.70568
514.00000,70.46079
516.00000,63.69212
518.00000,60.98882
520.00000,49.18445
522.00000,41.39603
524.00000,42.20013
526.00000,41.90753
528.00000,34.22889
530.00000,30.59039
532.00000,28.62115
534.00000,26.04582
536.00000,22.98316
538.00000,22.31441
540.00000,32.82963
542.00000,40.73288
544.00000,41.53532
546.00000,44.97530
548.00000,56.09793
550.00000,81.21030
552.00000,104.84245
554.00000,111.20974
556.00000,102.71251
558.00000,85.87306
560.00000,70.22506
562.00000,71.26852
564.00000,85.16399
566.00000,80.80560
568.00000,87.80099
570.00000,117.84716
572.00000,150.17084
574.00000,173.57466
576.00000,227.80302
578.00000,279.80484
580.00000,317.46231
582.00000,368.10501
584.00000,441.46979
586.00000,521.61047
588.00000,612.92688
590.00000,707.48761
592.00000,777.06329
594.00000,819.68457
596.00000,794.12512
598.00000,723.43695
600.00000,663.00482
602.00000,610.48285
604.00000,573.46899
606.00000,564.48077
608.00000,561.58313
610.00000,533.83032
612.00000,522.03180
614.00000,520.11719
616.00000,517.65320
618.00000,511.96045
620.00000,492.24863
622.00000,457.37061
624.00000,393.32886
626.00000,317.52863
628.00000,267.84229
630.00000,224.35535
632.00000,187.60806
634.00000,171.72580
636.00000,174.43236
638.00000,167.96013
640.00000,144.28673
642.00000,120.70841
644.00000,104.55878
646.00000,81.04379
648.00000,44.49056
650.00000,23.87268
652.00000,26.66818
654.00000,35.77563
656.00000,40.30302
658.00000,44.75290
660.00000,52.15170
662.00000,66.59441
664.00000,97.81627
666.00000,158.58833
668.00000,257.12637
670.00000,398.70563
672.00000,642.91431
674.00000,1108.45935
676.00000,1797.64355
678.00000,2492.90063
680.00000,2849.20483
682.00000,2648.74121
684.00000,2058.46826
686.00000,1400.79395
688.00000,916.66779
690.00000,663.48907
692.00000,548.57703
694.00000,483.44211
696.00000,443.15298
698.00000,414.88324
700.00000,379.03726
702.00000,339.45099
704.00000,291.50363
706.00000,254.37831
708.00000,227.56165
710.00000,180.10049
712.00000,165.39786
714.00000,193.51952
716.00000,231.18045
718.00000,237.61595
720.00000,200.23999
722.00000,175.72511
724.00000,151.83174
726.00000,113.83604
728.00000,115.43326
730.00000,151.50531
732.00000,207.60645
734.00000,310.35284
736.00000,513.43060
738.00000,871.85620
740.00000,1561.14343
742.00000,2737.65283
744.00000,4166.87891
746.00000,5136.09766
748.00000,5065.77637
750.00000,4013.96973
752.00000,2589.04761
754.00000,1467.61304
756.00000,847.86859
758.00000,534.85809
760.00000,380.46997
762.00000,319.92569
764.00000,290.38089
766.00000,294.66080
768.00000,336.58447
770.00000,414.56369
772.00000,511.50153
774.00000,582.77875
776.00000,599.96436
778.00000,582.13989
780.00000,550.04254
782.00000,493.94641
784.00000,414.59439
786.00000,316.56659
788.00000,228.52164
790.00000,179.27089
792.00000,152.14857
794.00000,115.10008
796.00000,80.76187
798.00000,64.53557
800.00000,53.76711
802.00000,53.36145
804.00000,45.81453
806.00000,32.66992
808.00000,27.78030
810.00000,23.96322
812.00000,37.24565
814.00000,42.15459
816.00000,25.92723
818.00000,24.12953
820.00000,50.86015
822.00000,88.29707
824.00000,147.93544
826.00000,237.15936
828.00000,309.36633
830.00000,388.27313
832.00000,446.27264
834.00000,441.48804
836.00000,386.57547
838.00000,340.29462
840.00000,337.74420
842.00000,353.76440
844.00000,357.72751
846.00000,371.99051
848.00000,378.63531
850.00000,345.49399
852.00000,288.69348
854.00000,248.17151
856.00000,183.59471
858.00000,133.69499
860.00000,112.01386
862.00000,97.54523
864.00000,96.58868
866.00000,106.19216
868.00000,104.96832
870.00000,94.38479
872.00000,95.21528
874.00000,84.94209
876.00000,55.66444
878.00000,36.53463
880.00000,45.75132
882.00000,49.02965
884.00000,35.44080
886.00000,23.03186
888.00000,20.59211
890.00000,17.88131
892.00000,20.11988
894.00000,38.59646
896.00000,50.53294
898.00000,39.72103
900.00000,36.16536
902.00000,32.03741
904.00000,31.70482
906.00000,34.98442
908.00000,30.32672
910.00000,24.80515
912.00000,29.04046
914.00000,28.43539
916.00000,17.43483
918.00000,24.68022
920.00000,37.32214
922.00000,48.54736
924.00000,54.48732
926.00000,52.85987
928.00000,58.44752
930.00000,77.21066
932.00000,88.98789
934.00000,87.52957
936.00000,100.89720
938.00000,113.05676
940.00000,131.23863
942.00000,173.88835
944.00000,253.47505
946.00000,390.87473
948.00000,635.86078
950.00000,956.98297
952.00000,1218.72009
954.00000,1266.12024
956.00000,1084.46497
958.00000,790.83533
960.00000,504.66214
962.00000,290.66779
964.00000,185.76680
966.00000,134.83551
968.00000,103.71223
970.00000,88.37138
972.00000,76.83754
974.00000,63.36535
976.00000,58.67220
978.00000,67.33048
980.00000,76.49036
982.00000,72.63148
984.00000,76.06217
986.00000,90.06425
988.00000,106.01103
990.00000,129.22823
992.00000,171.45752
994.00000,229.02649
996.00000,320.50162
998.00000,459.89020
1000.00000,595.25153
1002.00000,703.93207
1004.00000,762.14240
1006.00000,757.82300
1008.00000,701.12720
1010.00000,582.89111
1012.00000,413.03915
1014.00000,252.02805
1016.00000,156.93925
1018.00000,102.14944
1020.00000,74.29172
1022.00000,62.61487
1024.00000,68.63648
1026.00000,101.05901
1028.00000,130.02063
1030.00000,144.35928
1032.00000,154.19347
1034.00000,167.42326
1036.00000,171.73537
1038.00000,162.16719
1040.00000,127.99911
1042.00000,81.47066
1044.00000,51.87487
1046.00000,13.96298
1048.00000,-4.39024
1050.00000,1.73334
1052.00000,5.26628
1054.00000,4.41832
1056.00000,-12.92842
1058.00000,33.81005
1060.00000,157.54294
1062.00000,250.31638
1064.00000,331.51086
1066.00000,354.02823
1068.00000,352.42068
1070.00000,395.63110
1072.00000,420.60974
1074.00000,407.85559
1076.00000,391.94330
1078.00000,398.81442
1080.00000,418.29016
1082.00000,450.68472
1084.00000,477.42365
1086.00000,470.92679
1088.00000,431.60397
1090.00000,400.31625
1092.00000,373.59744
1094.00000,361.83801
1096.00000,381.20068
1098.00000,434.57678
1100.00000,530.80383
1102.00000,713.42072
1104.00000,991.54236
1106.00000,1285.50647
1108.00000,1451.22363
1110.00000,1430.45544
1112.00000,1219.45605
1114.00000,928.52252
1116.00000,707.39301
1118.00000,520.30676
1120.00000,434.73544
1122.00000,434.33298
1124.00000,467.46933
1126.00000,586.96234
1128.00000,713.06653
1130.00000,810.04083
1132.00000,927.89233
1134.00000,1133.09644
1136.00000,1436.15454
1138.00000,1957.08655
1140.00000,2622.06836
1142.00000,3132.88403
1144.00000,3199.00903
1146.00000,2767.59766
1148.00000,2074.17920
1150.00000,1414.03894
1152.00000,954.72327
1154.00000,725.34857
1156.00000,631.98346
1158.00000,572.68640
1160.00000,484.50140
1162.00000,353.32544
1164.00000,251.37047
1166.00000,213.23579
1168.00000,193.92770
1170.00000,146.33414
1172.00000,140.68210
1174.00000,197.49530
1176.00000,319.06061
1178.00000,527.61951
1180.00000,833.25232
1182.00000,1119.23328
1184.00000,1294.44739
1186.00000,1355.07935
1188.00000,1359.37207
1190.00000,1355.42932
1192.00000,1360.15967
1194.00000,1369.25317
1196.00000,1354.86646
1198.00000,1283.54895
1200.00000,1188.91150
1202.00000,1131.15625
1204.00000,1159.21497
1206.00000,1243.03027
1208.00000,1257.16528
1210.00000,1292.63440
1212.00000,1350.12183
1214.00000,1371.01672
1216.00000,1379.61267
1218.00000,1331.19556
1220.00000,1167.18018
1222.00000,919.59644
1224.00000,679.32434
1226.00000,461.44815
1228.00000,289.60635
1230.00000,177.37442
1232.00000,117.07500
1234.00000,81.73078
1236.00000,34.65403
1238.00000,6.36458
1240.00000,8.52671
1242.00000,9.66117
1244.00000,5.32611
1246.00000,4.18719
1248.00000,12.12886
1250.00000,17.97200
1252.00000,6.62016
1254.00000,6.13276
1256.00000,7.97373
1258.00000,7.36717
1260.00000,13.85912
1262.00000,15.70988
1264.00000,15.62267
1266.00000,19.19027
1268.00000,21.57547
1270.00000,16.33994
1272.00000,24.27168
1274.00000,23.55018
1276.00000,22.13677
1278.00000,42.54879
1280.00000,46.85582
1282.00000,64.74762
1284.00000,104.62992
1286.00000,149.81635
1288.00000,199.36935
1290.00000,277.16162
1292.00000,392.00339
1294.00000,537.75427
1296.00000,707.77344
1298.00000,910.90924
1300.00000,1176.73425
1302.00000,1503.31177
1304.00000,1822.38770
1306.00000,2022.59021
1308.00000,2041.83386
1310.00000,1885.82312
1312.00000,1633.22607
1314.00000,1393.05518
1316.00000,1245.66089
1318.00000,1250.35718
1320.00000,1318.49182
1322.00000,1385.93372
1324.00000,1504.21973
1326.00000,1633.84888
1328.00000,1852.92053
1330.00000,2229.16235
1332.00000,2835.87280
1334.00000,3836.60474
1336.00000,5205.84570
1338.00000,6716.48535
1340.00000,7896.80225
1342.00000,8153.93457
1344.00000,7212.03906
1346.00000,5485.57471
1348.00000,3711.04297
1350.00000,2409.89526
1352.00000,1580.67981
1354.00000,1084.31628
1356.00000,820.08740
1358.00000,680.79779
1360.00000,560.15808
1362.00000,492.82739
1364.00000,459.99948
1366.00000,442.28915
1368.00000,439.65707
1370.00000,434.58496
1372.00000,403.71967
1374.00000,388.88431
1376.00000,360.20026
1378.00000,249.50032
1380.00000,208.56244
1382.00000,158.74660
1384.00000,86.23550
1386.00000,64.87003
1388.00000,63.41539
1390.00000,42.95906
1392.00000,17.13937
1394.00000,13.43439
1396.00000,27.59173
1398.00000,28.96717
1400.00000,21.05532
1402.00000,44.68290
1404.00000,98.22810
1406.00000,110.00142
1408.00000,133.00395
1410.00000,158.50201
1412.00000,176.20230
1414.00000,197.39778
1416.00000,163.19337
1418.00000,167.99490
1420.00000,176.36610
1422.00000,153.92924
1424.00000,247.22675
1426.00000,322.65704
1428.00000,378.95639
1430.00000,419.55872
1432.00000,395.15558
1434.00000,411.11374
1436.00000,475.68039
1438.00000,622.63751
1440.00000,871.20477
1442.00000,1174.43958
1444.00000,1649.77917
1446.00000,2347.70850
1448.00000,3143.35107
1450.00000,3720.78125
1452.00000,3692.42505
1454.00000,3072.84814
1456.00000,2198.14258
1458.00000,1446.63574
1460.00000,975.17139
1462.00000,679.03003
1464.00000,493.31293
1466.00000,403.48279
1468.00000,370.36703
1470.00000,320.07529
1472.00000,295.10107
1474.00000,284.94705
1476.00000,266.95306
1478.00000,281.32895
1480.00000,274.86920
1482.00000,231.68010
1484.00000,182.62141
1486.00000,144.61720
1488.00000,82.29083
1490.00000,48.46803
1492.00000,57.86889
1494.00000,79.06303
1496.00000,102.26007
1498.00000,155.84593
1500.00000,216.08412
1502.00000,277.90521
1504.00000,377.84592
1506.00000,521.91418
1508.00000,663.77808
1510.00000,833.75061
1512.00000,1100.93152
1514.00000,1511.35364
1516.00000,2161.71436
1518.00000,3125.74121
1520.00000,4617.10791
1522.00000,7008.00781
1524.00000,10531.89746
1526.00000,14648.03223
1528.00000,17594.97070
1530.00000,17740.53320
1532.00000,15133.73047
1534.00000,11432.83105
1536.00000,8203.12891
1538.00000,5974.02930
1540.00000,4471.38037
1542.00000,3470.88110
1544.00000,2668.05811
1546.00000,2059.98340
1548.00000,1661.46106
1550.00000,1306.87329
1552.00000,1120.95166
1554.00000,945.44537
1556.00000,727.02222
1558.00000,573.82977
1560.00000,427.85770
1562.00000,314.39676
1564.00000,224.26559
1566.00000,154.51799
1568.00000,138.48581
1570.00000,122.81192
1572.00000,113.55344
1574.00000,134.82806
1576.00000,166.93909
1578.00000,164.14568
1580.00000,200.61555
1582.00000,210.43759
1584.00000,191.04732
1586.00000,266.39490
1588.00000,277.92950
1590.00000,288.86807
1592.00000,321.98291
1594.00000,324.85999
1596.00000,351.72198
1598.00000,331.78632
1600.00000,347.30444
1602.00000,410.42386
1604.00000,400.04099
1606.00000,472.28815
1608.00000,486.63422
1610.00000,458.35477
1612.00000,478.71875
1614.00000,358.75281
1616.00000,256.40466
1618.00000,208.86771
1620.00000,171.88683
1622.00000,156.71439
1624.00000,135.87640
1626.00000,132.32155
1628.00000,110.77650
1630.00000,62.38960
1632.00000,97.65347
1634.00000,99.40656
1636.00000,82.61687
1638.00000,92.54877
1640.00000,90.21229
1642.00000,91.49942
1644.00000,56.38869
1646.00000,33.03683
1648.00000,67.74969
1650.00000,61.53381
1652.00000,41.86865
1654.00000,57.46372
1656.00000,76.70682
1658.00000,44.38465
1660.00000,46.66850
1662.00000,56.22326
1664.00000,53.66603
1666.00000,56.27836
1668.00000,56.94403
1670.00000,53.64616
1672.00000,54.00291
1674.00000,48.94041
1676.00000,31.96352
1678.00000,49.21565
1680.00000,55.42722
1682.00000,49.97898
1684.00000,55.19813
1686.00000,40.42035
1688.00000,46.20662
1690.00000,31.35575
1692.00000,20.11211
1694.00000,71.38339
1696.00000,35.14208
1698.00000,24.03699
1700.00000,57.50871
1702.00000,48.28252
1704.00000,14.38841
1706.00000,21.52349
1708.00000,28.30091
1710.00000,12.23589
1712.00000,20.96790
1714.00000,42.49575
1716.00000,27.81738
1718.00000,42.31351
1720.00000,90.18534
1722.00000,29.46165
1724.00000,58.39929
1726.00000,100.69033
1728.00000,76.34930
1730.00000,70.69899
1732.00000,80.10306
1734.00000,86.55977
1736.00000,85.26731
1738.00000,88.04183
1740.00000,99.26665
1742.00000,74.28497
1744.00000,67.22288
1746.00000,74.69091
1748.00000,48.02232
1750.00000,72.06545
1752.00000,41.27559
1754.00000,24.59047
1756.00000,87.18101
1758.00000,76.20200
1760.00000,48.74007
1762.00000,47.35803
1764.00000,74.12359
1766.00000,90.26175
1768.00000,35.24350
1770.00000,76.13524
1772.00000,89.25745
1774.00000,5.69132
1776.00000,76.01811
1778.00000,82.90231
1780.00000,38.33853
1782.00000,44.35657
1784.00000,83.72224
1786.00000,69.01172
1788.00000,35.73351
1790.00000,59.46708
1792.00000,106.59939
1794.00000,68.47353
1796.00000,68.29251
1798.00000,65.75156
1800.00000,59.53749
1802.00000,95.08313
1804.00000,65.05684
1806.00000,49.43336
1808.00000,74.95580
1810.00000,75.37955
1812.00000,27.29191
1814.00000,58.15608
1816.00000,61.88169
1818.00000,32.27953
1820.00000,63.99451
1822.00000,51.86103
1824.00000,38.80714
1826.00000,40.39977
1828.00000,34.99523
1830.00000,34.94260
1832.00000,72.15868
1834.00000,79.79208
1836.00000,60.70634
1838.00000,69.87857
1840.00000,62.99011
1842.00000,60.10669
1844.00000,71.75739
1846.00000,71.34354
1848.00000,41.90363
1850.00000,45.91096
1852.00000,68.00221
1854.00000,80.69368
1856.00000,88.44948
1858.00000,100.90179
1860.00000,103.48857
1862.00000,70.86455
1864.00000,50.48792
1866.00000,103.68536
1868.00000,89.23873
1870.00000,99.33100
1872.00000,99.94707
1874.00000,17.54314
1876.00000,46.50086
1878.00000,95.34810
1880.00000,94.97598
1882.00000,83.57868
1884.00000,97.24049
1886.00000,58.13706
1888.00000,58.28168
1890.00000,74.03256
1892.00000,56.82717
1894.00000,134.48413
1896.00000,92.15004
1898.00000,82.44218
1900.00000,171.45923
1902.00000,120.81545
1904.00000,88.78000
1906.00000,126.10193
1908.00000,139.39403
1910.00000,107.31102
1912.00000,155.15594
1914.00000,84.97062
1916.00000,91.41938
1918.00000,188.13850
1920.00000,85.92464
1922.00000,102.15406
1924.00000,95.90128
1926.00000,88.99503
1928.00000,164.64174
1930.00000,82.71526
1932.00000,87.53438
1934.00000,157.90369
1936.00000,131.60735
1938.00000,37.91754
1940.00000,69.29890
1942.00000,87.56557
1944.00000,67.47827
1946.00000,80.08191
1948.00000,61.52985
1950.00000,108.38273
1952.00000,121.99966
1954.00000,77.43612
1956.00000,94.32098
1958.00000,78.59572
1960.00000,63.03849
1962.00000,104.25043
1964.00000,147.02399
1966.00000,89.86330
1968.00000,125.21651
1970.00000,128.11404
1972.00000,61.41232
1974.00000,94.26521
1976.00000,96.19527
1978.00000,55.96281
1980.00000,48.93913
1982.00000,69.65528
1984.00000,21.51169
1986.00000,39.59251
1988.00000,57.62083
1990.00000,29.39036
1992.00000,36.70069
1994.00000,56.31517
1996.00000,71.69830
1998.00000,64.75150
2000.00000,14.39615
2002.00000,15.73335
2004.00000,24.47252
2006.00000,32.94481
2008.00000,28.78765
2010.00000,38.17901
2012.00000,49.67276
2014.00000,57.17599
2016.00000,70.67158
2018.00000,80.05230
2020.00000,97.04629
2022.00000,100.09022
2024.00000,77.93453
2026.00000,70.17387
2028.00000,64.55590
2030.00000,38.41084
2032.00000,23.34747
2034.00000,56.71300
2036.00000,54.97632
2038.00000,31.92135
2040.00000,24.20344
2042.00000,32.25016
2044.00000,33.96103
2046.00000,39.36729
2048.00000,33.23316
2050.00000,20.51768
2052.00000,32.91410
2054.00000,30.19593
2056.00000,15.50732
2058.00000,4.77131
2060.00000,0.13341
2062.00000,-0.22246
2064.00000,0.16182
2066.00000,-0.08430
2068.00000,0.68282
2070.00000,1.92157
2072.00000,-2.50145
2074.00000,40.12436
2076.00000,110.44343
2078.00000,156.64641
2080.00000,274.73294
2082.00000,379.26767
2084.00000,446.58249
2086.00000,509.53864
2088.00000,526.37933
2090.00000,497.51123
2092.00000,471.88861
2094.00000,449.97961
2096.00000,390.07770
2098.00000,353.03201
2100.00000,333.88443
2102.00000,315.19446
2104.00000,291.33051
2106.00000,254.91374
2108.00000,253.01189
2110.00000,262.33829
2112.00000,242.11418
2114.00000,213.18750
2116.00000,211.28741
2118.00000,204.18098
2120.00000,182.29289
2122.00000,173.34714
2124.00000,166.21355
2126.00000,162.66765
2128.00000,157.68253
2130.00000,150.14536
2132.00000,153.35799
2134.00000,157.08755
2136.00000,155.24599
2138.00000,151.54947
2140.00000,149.91109
2142.00000,144.55627
2144.00000,143.35823
2146.00000,139.08690
2148.00000,123.61201
2150.00000,119.61653
2152.00000,145.30466
2154.00000,124.38509
2156.00000,71.33551
2158.00000,105.26785
2160.00000,114.49943
2162.00000,88.66431
2164.00000,85.62520
2166.00000,108.91637
2168.00000,79.30205
2170.00000,74.51376
2172.00000,76.34519
2174.00000,49.65169
2176.00000,60.96957
2178.00000,92.90459
2180.00000,93.02477
2182.00000,71.15408
2184.00000,77.92096
2186.00000,87.82707
2188.00000,91.40148
2190.00000,90.57284
2192.00000,104.35874
2194.00000,150.11865
2196.00000,150.49348
2198.00000,140.80241
2200.00000,162.34602
2202.00000,184.52457
2204.00000,210.35791
2206.00000,196.74161
2208.00000,173.23700
2210.00000,181.34123
2212.00000,147.62802
2214.00000,94.83214
2216.00000,79.50915
2218.00000,101.37663
2220.00000,101.18642
2222.00000,84.97920
2224.00000,68.30148
2226.00000,66.62012
2228.00000,73.80445
2230.00000,50.96091
2232.00000,47.31410
2234.00000,59.59854
2236.00000,48.08022
2238.00000,20.98616
2240.00000,15.72469
2242.00000,43.60527
2244.00000,54.67978
2246.00000,18.00797
2248.00000,42.36532
2250.00000,56.71220
2252.00000,44.92331
2254.00000,64.61556
2256.00000,102.03758
2258.00000,119.83478
2260.00000,113.60124
2262.00000,124.75668
2264.00000,190.64928
2266.00000,259.24023
2268.00000,323.72745
2270.00000,394.01514
2272.00000,458.25311
2274.00000,485.03403
2276.00000,465.56619
2278.00000,409.40265
2280.00000,335.62640
2282.00000,265.94925
2284.00000,218.75027
2286.00000,198.52711
2288.00000,173.96931
2290.00000,129.72287
2292.00000,138.48599
2294.00000,161.34337
2296.00000,143.42026
2298.00000,111.43708
2300.00000,142.39250
2302.00000,143.33380
2304.00000,121.97028
2306.00000,132.64105
2308.00000,153.94914
2310.00000,110.02350
2312.00000,119.89106
2314.00000,135.41946
2316.00000,72.78941
2318.00000,118.41119
2320.00000,123.65164
2322.00000,70.19490
2324.00000,73.23679
2326.00000,142.00354
2328.00000,88.10532
2330.00000,52.08620
2332.00000,93.41039
2334.00000,76.57570
2336.00000,15.97225
2338.00000,41.39934
2340.00000,77.68929
2342.00000,28.39628
2344.00000,6.82532
2346.00000,27.28427
2348.00000,20.73912
2350.00000,7.96146
2352.00000,54.43898
2354.00000,36.05917
2356.00000,20.12408
2358.00000,21.76430
2360.00000,11.89511
2362.00000,49.60161
2364.00000,63.72837
2366.00000,39.82339
2368.00000,22.30388
2370.00000,31.59681
2372.00000,23.88780
2374.00000,24.68051
2376.00000,40.38010
2378.00000,41.38007
2380.00000,32.33446
2382.00000,34.46939
2384.00000,33.47138
2386.00000,16.61988
2388.00000,3.45258
2390.00000,-9.38888
2392.00000,26.74574
2394.00000,67.42329
2396.00000,32.23436
2398.00000,31.53522
2400.00000,53.58489
2402.00000,56.81343
2404.00000,42.69324
2406.00000,49.37806
2408.00000,90.22520
2410.00000,93.97192
2412.00000,62.40886
2414.00000,90.03241
2416.00000,138.30240
2418.00000,126.62215
2420.00000,106.52553
2422.00000,142.78128
2424.00000,125.71500
2426.00000,81.02099
2428.00000,55.27900
2430.00000,51.89332
2432.00000,44.97202
2434.00000,36.24240
2436.00000,34.28023
2438.00000,42.03243
2440.00000,44.79461
2442.00000,20.25164
2444.00000,26.37223
2446.00000,47.06975
2448.00000,35.01539
2450.00000,15.32890
2452.00000,28.62063
2454.00000,31.90992
2456.00000,9.50557
2458.00000,13.81145
2460.00000,50.45356
2462.00000,52.03288
2464.00000,16.47121
2466.00000,-0.02893
2468.00000,19.61628
2470.00000,48.36153
2472.00000,61.67674
2474.00000,61.52523
2476.00000,64.73479
2478.00000,63.75818
2480.00000,54.96653
2482.00000,65.22659
2484.00000,94.49166
2486.00000,69.17296
2488.00000,50.62795
2490.00000,56.57097
2492.00000,45.28965
2494.00000,5.09451
2496.00000,7.84427
2498.00000,38.21693
2500.00000,41.80344
2502.00000,12.22029
2504.00000,10.39311
2506.00000,32.27732
2508.00000,27.64240
2510.00000,7.69882
2512.00000,50.03436
2514.00000,29.63803
2516.00000,-3.30617
2518.00000,23.59355
2520.00000,53.27730
2522.00000,36.50419
2524.00000,27.83698
2526.00000,50.75157
2528.00000,62.82854
2530.00000,41.79801
2532.00000,63.01428
2534.00000,74.10742
2536.00000,39.11839
2538.00000,39.37735
2540.00000,41.75941
2542.00000,27.02498
2544.00000,24.34149
2546.00000,52.02234
2548.00000,52.46828
2550.00000,30.03635
2552.00000,29.67948
2554.00000,43.88326
2556.00000,17.67788
2558.00000,52.68080
2560.00000,61.37062
2562.00000,16.89450
2564.00000,23.85007
2566.00000,24.46532
2568.00000,4.34505
2570.00000,25.22140
2572.00000,73.82657
2574.00000,14.55829
2576.00000,11.64806
2578.00000,58.30153
2580.00000,47.03618
2582.00000,-1.38562
2584.00000,60.96555
2586.00000,58.18888
2588.00000,-3.80006
2590.00000,46.07538
2592.00000,95.16642
2594.00000,40.95053
2596.00000,26.31474
2598.00000,99.14271
2600.00000,58.95542
2602.00000,54.78880
2604.00000,111.24055
2606.00000,115.52242
2608.00000,32.99293
2610.00000,51.27387
2612.00000,117.38852
2614.00000,95.17638
2616.00000,21.39538
2618.00000,82.60874
2620.00000,65.55829
2622.00000,41.58758
2624.00000,85.63517
2626.00000,75.63610
2628.00000,41.33071
2630.00000,55.34777
2632.00000,55.67585
2634.00000,12.38572
2636.00000,88.60215
2638.00000,74.52849
2640.00000,52.30467
2642.00000,122.64815
2644.00000,129.40721
2646.00000,110.52058
2648.00000,138.09702
2650.00000,159.94681
2652.00000,116.42325
2654.00000,142.05489
2656.00000,171.04945
2658.00000,195.47447
2660.00000,243.55551
2662.00000,267.23151
2664.00000,268.30331
2666.00000,286.56760
2668.00000,319.43866
2670.00000,325.74313
2672.00000,321.57135
2674.00000,325.33557
2676.00000,304.66666
2678.00000,252.41670
2680.00000,249.46498
2682.00000,274.36902
2684.00000,226.41425
2686.00000,152.03406
2688.00000,190.14655
2690.00000,158.65520
2692.00000,141.60286
2694.00000,176.28519
2696.00000,161.94818
2698.00000,94.77925
2700.00000,95.97878
2702.00000,139.80800
2704.00000,140.23239
2706.00000,112.83854
2708.00000,111.78623
2710.00000,166.49109
2712.00000,184.60445
2714.00000,99.65382
2716.00000,98.79115
2718.00000,85.21803
2720.00000,42.55828
2722.00000,59.60874
2724.00000,115.69149
2726.00000,65.24776
2728.00000,26.80605
2730.00000,74.05685
2732.00000,74.03722
2734.00000,19.50062
2736.00000,52.74236
2738.00000,97.51139
2740.00000,42.80134
2742.00000,70.43946
2744.00000,66.88200
2746.00000,57.40289
2748.00000,75.03793
2750.00000,34.90204
2752.00000,34.40973
2754.00000,51.69102
2756.00000,49.30632
2758.00000,41.02493
2760.00000,39.60975
2762.00000,79.78493
2764.00000,65.85906
2766.00000,8.93853
2768.00000,93.26890
2770.00000,68.66529
2772.00000,5.96139
2774.00000,39.90142
2776.00000,91.99051
2778.00000,38.98928
2780.00000,41.63697
2782.00000,88.80915
2784.00000,56.94682
2786.00000,28.34786
2788.00000,94.31026
2790.00000,108.60239
2792.00000,67.75348
2794.00000,149.44202
2796.00000,114.85078
2798.00000,95.20152
2800.00000,139.75742
2802.00000,124.56628
2804.00000,85.98465
2806.00000,91.79195
2808.00000,102.18649
2810.00000,87.66689
2812.00000,98.94120
2814.00000,73.23822
2816.00000,58.40586
2818.00000,60.08870
2820.00000,29.31780
2822.00000,28.16867
2824.00000,25.04169
2826.00000,28.87906
2828.00000,47.14218
2830.00000,35.09081
2832.00000,92.89893
2834.00000,94.76036
2836.00000,63.87213
2838.00000,156.59175
2840.00000,72.98077
2842.00000,43.97618
2844.00000,121.29090
2846.00000,112.62299
2848.00000,65.24525
2850.00000,100.63900
2852.00000,132.11497
2854.00000,116.76497
2856.00000,177.08801
2858.00000,216.97066
2860.00000,225.40533
2862.00000,264.64014
2864.00000,328.52737
2866.00000,293.08090
2868.00000,292.92963
2870.00000,390.34393
2872.00000,434.16821
2874.00000,285.07718
2876.00000,291.03098
2878.00000,317.14661
2880.00000,245.02440
2882.00000,223.02029
2884.00000,192.89830
2886.00000,138.54813
2888.00000,108.19623
2890.00000,118.72403
2892.00000,110.44633
2894.00000,122.81761
2896.00000,119.61567
2898.00000,83.49155
2900.00000,92.48013
2902.00000,181.13472
2904.00000,179.50029
2906.00000,97.53864
2908.00000,89.75247
2910.00000,115.11951
2912.00000,106.04980
2914.00000,146.30499
2916.00000,204.16437
2918.00000,107.96468
2920.00000,155.12920
2922.00000,213.26810
2924.00000,138.10971
2926.00000,80.28683
2928.00000,191.67694
2930.00000,166.91971
2932.00000,95.76234
2934.00000,187.32642
2936.00000,218.06940
2938.00000,155.33041
2940.00000,172.24525
2942.00000,232.66216
2944.00000,149.14421
2946.00000,163.94397
2948.00000,185.67032
2950.00000,125.42169
2952.00000,60.15932
2954.00000,82.10789
2956.00000,142.05849
2958.00000,131.93733
2960.00000,100.40757
2962.00000,167.38632
2964.00000,80.09270
2966.00000,86.19333
2968.00000,178.53638
2970.00000,114.90202
2972.00000,146.06499
2974.00000,253.30817
2976.00000,252.18155
2978.00000,153.95024
2980.00000,194.89182
2982.00000,192.86276
2984.00000,158.02396
2986.00000,182.15114
2988.00000,215.28624
2990.00000,118.12312
2992.00000,130.63531
2994.00000,175.02274
2996.00000,95.58807
2998.00000,131.16658
3000.00000,127.87617
3002.00000,98.45373
3004.00000,102.96896
3006.00000,96.48526
3008.00000,121.21498
3010.00000,111.84407
3012.00000,80.09457
3014.00000,79.35363
3016.00000,42.49642
3018.00000,21.81801
3020.00000,56.90118
3022.00000,96.63608
3024.00000,66.12574
3026.00000,56.22002
3028.00000,116.75812
3030.00000,161.50468
3032.00000,103.94382
3034.00000,88.07420
3036.00000,249.64511
3038.00000,267.90076
3040.00000,84.85017
3042.00000,283.95755
3044.00000,379.62997
3046.00000,298.15784
3048.00000,279.25061
3050.00000,391.20029
3052.00000,470.38654
3054.00000,511.57715
3056.00000,575.13867
3058.00000,598.12341
3060.00000,439.72415
3062.00000,449.90958
3064.00000,491.65021
3066.00000,406.99719
3068.00000,390.74918
3070.00000,290.35513
3072.00000,208.85658
3074.00000,265.25885
3076.00000,334.92908
3078.00000,180.16611
3080.00000,155.05310
3082.00000,210.65485
3084.00000,137.15115
3086.00000,106.07786
3088.00000,222.43799
3090.00000,222.17833
3092.00000,119.44328
3094.00000,186.19897
3096.00000,180.65851
3098.00000,152.89897
3100.00000,198.51418
3102.00000,232.73538
3104.00000,106.64046
3106.00000,95.52695
3108.00000,126.29589
3110.00000,98.16356
3112.00000,125.61105
3114.00000,122.37968
3116.00000,111.40089
3118.00000,151.64101
3120.00000,199.07974
3122.00000,137.98271
3124.00000,190.49883
3126.00000,238.11888
3128.00000,179.59508
3130.00000,221.60600
3132.00000,212.72664
3134.00000,243.28426
3136.00000,259.48047
3138.00000,125.45135
3140.00000,135.78806
3142.00000,276.89005
3144.00000,371.90552
3146.00000,312.13855
3148.00000,194.13103
3150.00000,249.54913
3152.00000,249.11981
3154.00000,146.25517
3156.00000,220.55362
3158.00000,274.26224
3160.00000,186.96674
3162.00000,186.61476
3164.00000,327.39322
3166.00000,146.76253
3168.00000,109.47453
3170.00000,217.88518
3172.00000,218.10236
3174.00000,170.46709
3176.00000,250.30643
3178.00000,309.09619
3180.00000,315.24896
3182.00000,338.65057
3184.00000,222.86772
3186.00000,245.48286
3188.00000,326.70660
3190.00000,258.05026
3192.00000,170.44617
3194.00000,181.80840
3196.00000,171.57394
3198.00000,110.17986
3200.00000,117.23678
