300.00000,114.72246
302.00000,102.65646
304.00000,92.78243
306.00000,93.51106
308.00000,91.04258
310.00000,82.78237
312.00000,86.82352
314.00000,95.95377
316.00000,95.05880
318.00000,93.50970
320.00000,100.71236
322.00000,96.63727
324.00000,94.44386
326.00000,105.73664
328.00000,119.96839
330.00000,118.53696
332.00000,111.31001
334.00000,112.19413
336.00000,117.90113
338.00000,121.64551
340.00000,129.62625
342.00000,131.05801
344.00000,125.36835
346.00000,123.09003
348.00000,129.17290
350.00000,129.87865
352.00000,129.48407
354.00000,133.11859
356.00000,135.03902
358.00000,125.81313
360.00000,115.26017
362.00000,119.63971
364.00000,131.90671
366.00000,127.52124
368.00000,108.21311
370.00000,87.12574
372.00000,71.39790
374.00000,65.12090
376.00000,72.27045
378.00000,76.21936
380.00000,73.12241
382.00000,75.56165
384.00000,89.00394
386.00000,90.52969
388.00000,91.50255
390.00000,92.43524
392.00000,87.78931
394.00000,88.26019
396.00000,91.24069
398.00000,94.14590
400.00000,99.24159
402.00000,106.32679
404.00000,107.58276
406.00000,122.71511
408.00000,143.78149
410.00000,151.01640
412.00000,150.81564
414.00000,152.98491
416.00000,160.20193
418.00000,169.77760
420.00000,176.70667
422.00000,177.29211
424.00000,180.41455
426.00000,182.31226
428.00000,178.49892
430.00000,180.69945
432.00000,194.78412
434.00000,207.74919
436.00000,205.56235
438.00000,201.67474
440.00000,235.50020
442.00000,264.96494
444.00000,267.20050
446.00000,251.91658
448.00000,230.42624
450.00000,220.28419
452.00000,219.57961
454.00000,217.43680
456.00000,211.15749
458.00000,208.32159
460.00000,195.19162
462.00000,177.61266
464.00000,163.24368
466.00000,146.45407
468.00000,152.13309
470.00000,185.53311
472.00000,224.59592
474.00000,278.36618
476.00000,435.93869
478.00000,713.41742
480.00000,1045.65906
482.00000,1282.02344
484.00000,1271.66602
486.00000,1071.72876
488.00000,788.89337
490.00000,534.80505
492.00000,380.09286
494.00000,303.84500
496.00000,254.01591
498.00000,205.92270
500.00000,169.26381
502.00000,155.54117
504.00000,135.70267
506.00000,107.16959
508.00000,89.73612
510.00000,97.76749
512.00000,114.48750
514.00000,95.84136
516.00000,70.57607
518.00000,69.48630
520.00000,65.47787
522.00000,54.59769
524.00000,46.93375
526.00000,42.21964
528.00000,39.22873
530.00000,50.33938
532.00000,50.62260
534.00000,43.26212
536.00000,47.19640
538.00000,61.59076
540.00000,66.90197
542.00000,73.72111
544.00000,87.64262
546.00000,96.51971
548.00000,93.78605
550.00000,100.24693
552.00000,117.81995
554.00000,134.81367
556.00000,137.04465
558.00000,103.57530
560.00000,66.50369
562.00000,58.20825
564.00000,74.08235
566.00000,87.81100
568.00000,111.68775
570.00000,119.58501
572.00000,107.78136
574.00000,119.24560
576.00000,148.99982
578.00000,176.34573
580.00000,201.27376
582.00000,240.78754
584.00000,297.65976
586.00000,343.22910
588.00000,390.14627
590.00000,444.34677
592.00000,479.81100
594.00000,495.87833
596.00000,484.19568
598.00000,444.92603
600.00000,387.12457
602.00000,320.13882
604.00000,266.64966
606.00000,233.28055
608.00000,214.52861
610.00000,206.51259
612.00000,210.28578
614.00000,213.86967
616.00000,216.58829
618.00000,225.66872
620.00000,230.67496
622.00000,197.61145
624.00000,166.30476
626.00000,161.84598
628.00000,153.22346
630.00000,138.32402
632.00000,128.82498
634.00000,131.54218
636.00000,138.47826
638.00000,134.55995
640.00000,128.17133
642.00000,122.34876
644.00000,109.47002
646.00000,89.28928
648.00000,83.78146
650.00000,74.56261
652.00000,59.23374
654.00000,53.19268
656.00000,58.16794
658.00000,65.44086
660.00000,73.59961
662.00000,81.21551
664.00000,95.32706
666.00000,144.63896
668.00000,205.61722
670.00000,288.67657
672.00000,467.22446
674.00000,822.82007
676.00000,1328.40967
678.00000,1830.31177
680.00000,2087.97339
682.00000,1934.41431
684.00000,1482.66711
686.00000,1007.83185
688.00000,676.41882
690.00000,499.48123
692.00000,416.26184
694.00000,362.66364
696.00000,336.30450
698.00000,322.43280
700.00000,292.04742
702.00000,273.75439
704.00000,253.66266
706.00000,216.35460
708.00000,175.86594
710.00000,159.79813
712.00000,154.67661
714.00000,174.93132
716.00000,207.66780
718.00000,211.33601
720.00000,186.59227
722.00000,160.38957
724.00000,142.93503
726.00000,131.11230
728.00000,125.49488
730.00000,129.02977
732.00000,174.33205
734.00000,266.13998
736.00000,401.61676
738.00000,658.92108
740.00000,1167.73145
742.00000,2029.93286
744.00000,3068.78540
746.00000,3765.37598
748.00000,3695.80322
750.00000,2922.51172
752.00000,1892.91089
754.00000,1081.53662
756.00000,629.28693
758.00000,426.55286
760.00000,319.26736
762.00000,237.08638
764.00000,200.63237
766.00000,209.73691
768.00000,256.80490
770.00000,323.42413
772.00000,384.42010
774.00000,424.04489
776.00000,445.49899
778.00000,442.94098
780.00000,407.96786
782.00000,349.49081
784.00000,294.70020
786.00000,231.56447
788.00000,168.12865
790.00000,133.30070
792.00000,124.08002
794.00000,120.72360
796.00000,101.53596
798.00000,79.00629
800.00000,86.15323
802.00000,94.31281
804.00000,87.33035
806.00000,75.54476
808.00000,72.70163
810.00000,72.08106
812.00000,69.43895
814.00000,68.23377
816.00000,65.13507
818.00000,57.11808
820.00000,75.21835
822.00000,123.98229
824.00000,185.39833
826.00000,241.89432
828.00000,294.47604
830.00000,353.98785
832.00000,392.93604
834.00000,381.52411
836.00000,336.63138
838.00000,313.87369
840.00000,292.07211
842.00000,285.63669
844.00000,305.48880
846.00000,284.35376
848.00000,279.15552
850.00000,288.15753
852.00000,261.62637
854.00000,192.52269
856.00000,151.10577
858.00000,134.82497
860.00000,119.24134
862.00000,96.04424
864.00000,75.49969
866.00000,89.85066
868.00000,106.82247
870.00000,110.43622
872.00000,122.69422
874.00000,105.22978
876.00000,82.82426
878.00000,77.53714
880.00000,79.60437
882.00000,71.49699
884.00000,50.30460
886.00000,22.43521
888.00000,27.02015
890.00000,80.84034
892.00000,84.67686
894.00000,67.40255
896.00000,75.46227
898.00000,90.68014
900.00000,65.69820
902.00000,52.90835
904.00000,52.19492
906.00000,48.75687
908.00000,49.59271
910.00000,44.74661
912.00000,45.81047
914.00000,53.24805
916.00000,55.64643
918.00000,50.74630
920.00000,49.49580
922.00000,70.91649
924.00000,94.55565
926.00000,88.26912
928.00000,94.22694
930.00000,119.39201
932.00000,136.65947
934.00000,132.48851
936.00000,130.41280
938.00000,136.65335
940.00000,160.62897
942.00000,207.49568
944.00000,272.06845
946.00000,359.66492
948.00000,539.98853
950.00000,784.31116
952.00000,979.36224
954.00000,1030.46692
956.00000,900.46027
958.00000,681.86224
960.00000,478.79507
962.00000,334.53021
964.00000,258.12775
966.00000,212.64700
968.00000,192.63826
970.00000,188.85609
972.00000,165.89996
974.00000,171.56223
976.00000,189.96835
978.00000,192.66386
980.00000,186.11215
982.00000,187.86995
984.00000,198.82495
986.00000,220.79903
988.00000,245.12004
990.00000,253.79272
992.00000,269.73508
994.00000,318.98111
996.00000,398.44897
998.00000,482.88681
1000.00000,560.88379
1002.00000,642.87885
1004.00000,712.61597
1006.00000,741.43677
1008.00000,717.40649
1010.00000,639.65564
1012.00000,537.03754
1014.00000,440.65259
1016.00000,370.97318
1018.00000,339.95563
1020.00000,324.06400
1022.00000,318.61777
1024.00000,324.37234
1026.00000,328.07245
1028.00000,333.92523
1030.00000,350.18149
1032.00000,371.25516
1034.00000,379.88690
1036.00000,366.24039
1038.00000,341.17532
1040.00000,336.58420
1042.00000,330.95624
1044.00000,273.74683
1046.00000,259.45383
1048.00000,256.60608
1050.00000,234.99529
1052.00000,218.61409
1054.00000,212.78236
1056.00000,222.52562
1058.00000,231.16685
1060.00000,234.73425
1062.00000,247.35815
1064.00000,241.58768
1066.00000,237.40884
1068.00000,240.29547
1070.00000,234.45657
1072.00000,228.02745
1074.00000,224.25990
1076.00000,227.85822
1078.00000,233.47861
1080.00000,236.66278
1082.00000,267.83267
1084.00000,288.35391
1086.00000,288.68463
1088.00000,293.27673
1090.00000,291.80096
1092.00000,279.71439
1094.00000,273.20901
1096.00000,288.00867
1098.00000,330.65335
1100.00000,418.29376
1102.00000,549.84381
1104.00000,734.96289
1106.00000,956.11157
1108.00000,1110.68213
1110.00000,1083.08362
1112.00000,923.47876
1114.00000,735.55212
1116.00000,567.37463
1118.00000,455.93823
1120.00000,382.95801
1122.00000,343.95334
1124.00000,363.00629
1126.00000,448.29611
1128.00000,555.12341
1130.00000,660.32648
1132.00000,767.63800
1134.00000,902.10596
1136.00000,1124.70496
1138.00000,1505.68201
1140.00000,1990.29370
1142.00000,2364.97998
1144.00000,2389.88525
1146.00000,2093.20630
1148.00000,1631.13489
1150.00000,1166.07080
1152.00000,812.87732
1154.00000,629.48206
1156.00000,560.02600
1158.00000,509.58145
1160.00000,425.54742
1162.00000,328.65979
1164.00000,251.71765
1166.00000,211.00290
1168.00000,201.68448
1170.00000,204.57552
1172.00000,206.18687
1174.00000,243.21590
1176.00000,342.21161
1178.00000,503.35602
1180.00000,711.55084
1182.00000,918.87512
1184.00000,1048.22400
1186.00000,1090.87646
1188.00000,1103.72791
1190.00000,1096.79004
1192.00000,1112.72766
1194.00000,1140.05774
1196.00000,1118.48340
1198.00000,1035.27466
1200.00000,1004.93555
1202.00000,977.93390
1204.00000,948.88745
1206.00000,985.67529
1208.00000,996.33606
1210.00000,1029.21509
1212.00000,1075.01855
1214.00000,1094.08545
1216.00000,1109.63708
1218.00000,1075.04871
1220.00000,954.51062
1222.00000,771.38831
1224.00000,587.72992
1226.00000,438.84540
1228.00000,324.36954
1230.00000,234.20673
1232.00000,164.55548
1234.00000,118.28146
1236.00000,91.85844
1238.00000,78.18198
1240.00000,80.15833
1242.00000,92.92902
1244.00000,81.32198
1246.00000,65.11860
1248.00000,71.93216
1250.00000,91.45413
1252.00000,86.37251
1254.00000,73.22896
1256.00000,75.60941
1258.00000,96.00947
1260.00000,109.65999
1262.00000,89.76688
1264.00000,80.74226
1266.00000,82.50659
1268.00000,90.37225
1270.00000,125.32124
1272.00000,119.71379
1274.00000,124.40635
1276.00000,133.54630
1278.00000,95.35786
1280.00000,87.57813
1282.00000,99.80047
1284.00000,133.27155
1286.00000,183.55646
1288.00000,221.95500
1290.00000,287.27087
1292.00000,365.23773
1294.00000,450.24084
1296.00000,573.43884
1298.00000,748.51984
1300.00000,923.44446
1302.00000,1134.47241
1304.00000,1374.37219
1306.00000,1514.13745
1308.00000,1523.46436
1310.00000,1392.79382
1312.00000,1204.28381
1314.00000,1066.44800
1316.00000,974.91711
1318.00000,938.55469
1320.00000,997.73328
1322.00000,1078.95264
1324.00000,1073.25415
1326.00000,1206.31726
1328.00000,1366.28369
1330.00000,1587.34619
1332.00000,2045.80908
1334.00000,2686.77954
1336.00000,3643.36719
1338.00000,4718.84033
1340.00000,5516.57373
1342.00000,5714.32666
1344.00000,5101.91260
1346.00000,3914.85205
1348.00000,2679.13599
1350.00000,1774.16638
1352.00000,1148.46814
1354.00000,823.97308
1356.00000,642.50305
1358.00000,496.97864
1360.00000,439.79788
1362.00000,365.52322
1364.00000,343.75601
1366.00000,371.62177
1368.00000,372.58398
1370.00000,372.49542
1372.00000,360.22205
1374.00000,333.96878
1376.00000,294.33789
1378.00000,233.45343
1380.00000,164.85457
1382.00000,148.09528
1384.00000,114.05833
1386.00000,26.51326
1388.00000,45.89030
1390.00000,41.39452
1392.00000,11.33502
1394.00000,15.59391
1396.00000,33.21991
1398.00000,28.49103
1400.00000,10.10699
1402.00000,15.63585
1404.00000,51.86730
1406.00000,76.04900
1408.00000,110.17332
1410.00000,117.73580
1412.00000,122.69217
1414.00000,175.30309
1416.00000,136.14018
1418.00000,125.85574
1420.00000,152.42184
1422.00000,148.07550
1424.00000,190.42908
1426.00000,251.36194
1428.00000,283.28058
1430.00000,292.68030
1432.00000,310.09702
1434.00000,308.02365
1436.00000,356.89413
1438.00000,461.30243
1440.00000,602.73492
1442.00000,835.55042
1444.00000,1137.67200
1446.00000,1583.21948
1448.00000,2146.60229
1450.00000,2578.78394
1452.00000,2577.60840
1454.00000,2121.71216
1456.00000,1498.45740
1458.00000,1001.95691
1460.00000,670.26599
1462.00000,481.70786
1464.00000,371.87329
1466.00000,282.74106
1468.00000,208.49469
1470.00000,188.98723
1472.00000,195.33124
1474.00000,213.28453
1476.00000,220.64833
1478.00000,180.37956
1480.00000,190.31152
1482.00000,204.87909
1484.00000,180.27690
1486.00000,144.33499
1488.00000,81.51618
1490.00000,34.44260
1492.00000,32.15922
1494.00000,57.56611
1496.00000,77.56388
1498.00000,103.79651
1500.00000,125.77182
1502.00000,175.96274
1504.00000,270.11707
1506.00000,302.97174
1508.00000,399.50446
1510.00000,534.84949
1512.00000,686.93317
1514.00000,1007.68060
1516.00000,1437.56873
1518.00000,2093.00000
1520.00000,3128.55103
1522.00000,4723.66650
1524.00000,7134.03662
1526.00000,9939.90820
1528.00000,11994.48047
1530.00000,12178.87012
1532.00000,10378.70996
1534.00000,7877.40283
1536.00000,5699.05420
1538.00000,4162.07861
1540.00000,3122.54810
1542.00000,2412.46777
1544.00000,1880.89734
1546.00000,1491.53455
1548.00000,1213.74976
1550.00000,975.57336
1552.00000,847.13971
1554.00000,729.94489
1556.00000,616.44507
1558.00000,557.08447
1560.00000,424.49838
1562.00000,343.88934
1564.00000,283.93051
1566.00000,221.76236
1568.00000,263.83710
1570.00000,249.58279
1572.00000,205.95509
1574.00000,220.23651
1576.00000,263.73950
1578.00000,229.51320
1580.00000,262.72531
1582.00000,284.58243
1584.00000,246.11719
1586.00000,305.87415
1588.00000,367.48407
1590.00000,388.21817
1592.00000,394.72952
1594.00000,406.08441
1596.00000,392.26727
1598.00000,359.52170
1600.00000,366.16266
1602.00000,408.02521
1604.00000,416.37503
1606.00000,449.57623
1608.00000,487.27881
1610.00000,458.81775
1612.00000,386.10403
1614.00000,396.07367
1616.00000,315.31357
1618.00000,273.61771
1620.00000,299.84424
1622.00000,192.76645
1624.00000,230.79471
1626.00000,250.88527
1628.00000,214.00731
1630.00000,219.77307
1632.00000,152.29358
1634.00000,183.76262
1636.00000,228.53012
1638.00000,172.19409
1640.00000,121.35561
1642.00000,160.13583
1644.00000,191.07634
1646.00000,175.04916
1648.00000,159.70166
1650.00000,142.52071
1652.00000,98.96767
1654.00000,137.99728
1656.00000,219.28838
1658.00000,167.34555
1660.00000,145.02881
1662.00000,140.94568
1664.00000,129.82881
1666.00000,133.21909
1668.00000,142.97093
1670.00000,149.00922
1672.00000,117.79852
1674.00000,89.32494
1676.00000,133.02814
1678.00000,150.85583
1680.00000,138.57961
1682.00000,91.69682
1684.00000,52.16511
1686.00000,137.63376
1688.00000,222.08739
1690.00000,211.03276
1692.00000,159.41112
1694.00000,171.37646
1696.00000,200.70952
1698.00000,221.00475
1700.00000,226.21458
1702.00000,203.88747
1704.00000,155.27603
1706.00000,172.93954
1708.00000,205.84122
1710.00000,198.21173
1712.00000,179.71651
1714.00000,156.93723
1716.00000,138.88681
1718.00000,164.47569
1720.00000,221.32446
1722.00000,222.42456
1724.00000,216.78461
1726.00000,170.10844
1728.00000,143.21935
1730.00000,209.05939
1732.00000,149.78836
1734.00000,150.85991
1736.00000,173.97893
1738.00000,130.53725
1740.00000,196.15245
1742.00000,207.68166
1744.00000,187.45708
1746.00000,179.76012
1748.00000,141.08867
1750.00000,117.46688
1752.00000,185.31107
1754.00000,231.68588
1756.00000,202.00218
1758.00000,239.71341
1760.00000,165.40314
1762.00000,132.28976
1764.00000,183.56686
1766.00000,167.73943
1768.00000,193.85161
1770.00000,209.74210
1772.00000,174.83061
1774.00000,136.01030
1776.00000,160.40067
1778.00000,219.41193
1780.00000,221.77686
1782.00000,185.37813
1784.00000,192.49704
1786.00000,194.42194
1788.00000,209.82024
1790.00000,262.49652
1792.00000,267.35806
1794.00000,138.92619
1796.00000,159.67213
1798.00000,192.89798
1800.00000,169.52078
1802.00000,206.85835
1804.00000,203.07213
1806.00000,163.45169
1808.00000,185.13927
1810.00000,244.09390
1812.00000,205.58504
1814.00000,228.88431
1816.00000,216.22517
1818.00000,188.19011
1820.00000,271.76923
1822.00000,310.30780
1824.00000,267.17303
1826.00000,236.57631
1828.00000,243.07887
1830.00000,206.42322
1832.00000,223.66061
1834.00000,225.74348
1836.00000,223.55298
1838.00000,263.50882
1840.00000,218.73915
1842.00000,277.84912
1844.00000,285.40405
1846.00000,182.69608
1848.00000,246.31702
1850.00000,259.86288
1852.00000,258.60239
1854.00000,261.40875
1856.00000,237.39639
1858.00000,289.40118
1860.00000,231.61838
1862.00000,224.75182
1864.00000,312.58780
1866.00000,226.14870
1868.00000,220.92607
1870.00000,254.88414
1872.00000,275.31821
1874.00000,295.12991
1876.00000,246.31990
1878.00000,309.83398
1880.00000,318.32095
1882.00000,251.20036
1884.00000,342.47836
1886.00000,209.58566
1888.00000,187.86861
1890.00000,311.93878
1892.00000,294.93256
1894.00000,277.73508
1896.00000,282.80429
1898.00000,254.09224
1900.00000,264.04858
1902.00000,380.55093
1904.00000,272.27490
1906.00000,262.10184
1908.00000,323.23303
1910.00000,266.74615
1912.00000,394.01169
1914.00000,258.14838
1916.00000,170.55882
1918.00000,309.15326
1920.00000,256.70453
1922.00000,245.09273
1924.00000,294.82538
1926.00000,289.44104
1928.00000,260.07870
1930.00000,366.27112
1932.00000,281.45435
1934.00000,215.91182
1936.00000,303.20065
1938.00000,282.45026
1940.00000,262.77707
1942.00000,286.94833
1944.00000,268.17264
1946.00000,221.42529
1948.00000,311.22498
1950.00000,252.82596
1952.00000,244.79448
1954.00000,361.64597
1956.00000,333.16830
1958.00000,320.41153
1960.00000,308.10120
1962.00000,286.09540
1964.00000,293.47473
1966.00000,312.19348
1968.00000,297.49130
1970.00000,272.71326
1972.00000,219.83488
1974.00000,140.21213
1976.00000,223.26366
1978.00000,237.37985
1980.00000,201.02328
1982.00000,239.24971
1984.00000,208.79860
1986.00000,228.58034
1988.00000,234.79657
1990.00000,215.38300
1992.00000,245.19882
1994.00000,180.31775
1996.00000,161.37355
1998.00000,183.43988
2000.00000,474.03619
2002.00000,509.01395
2004.00000,544.65552
2006.00000,568.12646
2008.00000,596.25726
2010.00000,623.46667
2012.00000,645.78656
2014.00000,664.49841
2016.00000,683.10529
2018.00000,703.26697
2020.00000,716.45166
2022.00000,716.38269
2024.00000,710.22125
2026.00000,712.73944
2028.00000,712.85193
2030.00000,690.94214
2032.00000,672.25061
2034.00000,686.88629
2036.00000,662.19208
2038.00000,629.10565
2040.00000,622.37634
2042.00000,626.10529
2044.00000,610.41919
2046.00000,594.22662
2048.00000,588.64655
2050.00000,590.21558
2052.00000,588.90173
2054.00000,567.59027
2056.00000,552.87183
2058.00000,539.27814
2060.00000,510.67966
2062.00000,509.75095
2064.00000,487.36551
2066.00000,465.89975
2068.00000,476.14761
2070.00000,469.54898
2072.00000,446.35571
2074.00000,431.10257
2076.00000,423.93625
2078.00000,412.83493
2080.00000,425.78531
2082.00000,444.67200
2084.00000,456.53592
2086.00000,466.06451
2088.00000,473.58569
2090.00000,472.52444
2092.00000,469.56323
2094.00000,473.70700
2096.00000,478.03885
2098.00000,460.00989
2100.00000,439.28156
2102.00000,446.56958
2104.00000,466.65521
2106.00000,441.92261
2108.00000,449.58694
2110.00000,481.78503
2112.00000,475.35745
2114.00000,438.60651
2116.00000,462.88229
2118.00000,476.20734
2120.00000,450.54694
2122.00000,449.35944
2124.00000,455.07181
2126.00000,463.69147
2128.00000,472.55911
2130.00000,471.85345
2132.00000,457.95935
2134.00000,454.97446
2136.00000,446.29446
2138.00000,425.39423
2140.00000,419.96402
2142.00000,435.74454
2144.00000,442.09872
2146.00000,427.87619
2148.00000,406.42514
2150.00000,390.74796
2152.00000,403.07037
2154.00000,395.40585
2156.00000,356.15640
2158.00000,352.81097
2160.00000,373.95926
2162.00000,370.23822
2164.00000,352.65704
2166.00000,362.48508
2168.00000,368.22256
2170.00000,347.10205
2172.00000,338.00952
2174.00000,353.58014
2176.00000,341.65665
2178.00000,343.81638
2180.00000,344.18564
2182.00000,331.84433
2184.00000,333.38861
2186.00000,347.05621
2188.00000,349.91205
2190.00000,359.76263
2192.00000,384.49518
2194.00000,375.09714
2196.00000,360.54379
2198.00000,363.31046
2200.00000,375.06863
2202.00000,385.89105
2204.00000,420.15936
2206.00000,439.60385
2208.00000,430.44940
2210.00000,414.11179
2212.00000,393.66898
2214.00000,385.60522
2216.00000,367.57376
2218.00000,330.58176
2220.00000,311.01013
2222.00000,307.51620
2224.00000,304.26343
2226.00000,306.21774
2228.00000,320.52414
2230.00000,312.40182
2232.00000,276.54947
2234.00000,269.24240
2236.00000,284.48306
2238.00000,226.55606
2240.00000,210.91293
2242.00000,218.05318
2244.00000,188.04343
2246.00000,148.84303
2248.00000,161.27354
2250.00000,181.04988
2252.00000,182.44383
2254.00000,188.95602
2256.00000,211.97234
2258.00000,225.85039
2260.00000,233.81339
2262.00000,243.81454
2264.00000,255.98567
2266.00000,307.67575
2268.00000,375.99411
2270.00000,426.19284
2272.00000,449.63376
2274.00000,453.22015
2276.00000,429.01840
2278.00000,387.12161
2280.00000,347.31738
2282.00000,313.05630
2284.00000,268.28516
2286.00000,226.98065
2288.00000,211.93234
2290.00000,216.45695
2292.00000,199.76833
2294.00000,192.49568
2296.00000,188.88770
2298.00000,175.00607
2300.00000,187.27405
2302.00000,195.81940
2304.00000,197.87280
2306.00000,195.32985
2308.00000,175.81125
2310.00000,156.60457
2312.00000,158.35330
2314.00000,152.11392
2316.00000,114.35935
2318.00000,95.53675
2320.00000,72.60757
2322.00000,52.81171
2324.00000,50.74968
2326.00000,47.19001
2328.00000,39.03527
2330.00000,57.06621
2332.00000,67.16149
2334.00000,23.06511
2336.00000,7.36966
2338.00000,25.71026
2340.00000,42.88586
2342.00000,42.21140
2344.00000,39.03065
2346.00000,25.92248
2348.00000,24.14619
2350.00000,27.37072
2352.00000,4.98875
2354.00000,-6.40852
2356.00000,19.56016
2358.00000,31.52359
2360.00000,0.93904
2362.00000,9.11291
2364.00000,12.48840
2366.00000,15.92614
2368.00000,28.56778
2370.00000,23.17113
2372.00000,30.95713
2374.00000,24.93854
2376.00000,4.26333
2378.00000,0.55107
2380.00000,2.18938
2382.00000,-7.51376
2384.00000,17.58532
2386.00000,61.15969
2388.00000,22.54915
2390.00000,9.19183
2392.00000,10.63747
2394.00000,-0.63648
2396.00000,-0.24071
2398.00000,0.30030
2400.00000,-0.23073
2402.00000,0.26482
2404.00000,-0.03155
2406.00000,-0.65690
2408.00000,16.25027
2410.00000,29.36555
2412.00000,19.14336
2414.00000,1.78224
2416.00000,-1.11122
2418.00000,-0.15131
2420.00000,1.20037
2422.00000,20.26524
2424.00000,58.11361
2426.00000,34.33643
2428.00000,-5.84612
2430.00000,1.56294
2432.00000,16.71985
2434.00000,8.37756
2436.00000,-1.51728
2438.00000,0.56362
2440.00000,0.33276
2442.00000,-3.05241
2444.00000,15.22497
2446.00000,54.19563
2448.00000,88.65678
2450.00000,101.78835
2452.00000,103.18114
2454.00000,93.26760
2456.00000,93.14711
2458.00000,121.43056
2460.00000,122.72259
2462.00000,104.87900
2464.00000,101.20178
2466.00000,117.83909
2468.00000,127.68599
2470.00000,139.22978
2472.00000,114.95357
2474.00000,84.48560
2476.00000,122.93394
2478.00000,102.74892
2480.00000,98.23256
2482.00000,120.34980
2484.00000,88.02350
2486.00000,52.11140
2488.00000,73.65445
2490.00000,95.28668
2492.00000,64.51626
2494.00000,38.53841
2496.00000,30.53665
2498.00000,16.47964
2500.00000,-1.34088
2502.00000,0.04749
2504.00000,0.39191
2506.00000,0.36297
2508.00000,-0.40217
2510.00000,0.11189
2512.00000,13.42911
2514.00000,23.73573
2516.00000,33.78311
2518.00000,43.18518
2520.00000,37.54662
2522.00000,24.64208
2524.00000,35.86168
2526.00000,52.58443
2528.00000,41.61651
2530.00000,30.37285
2532.00000,17.45681
2534.00000,5.40137
2536.00000,0.32125
2538.00000,0.21786
2540.00000,0.77517
2542.00000,-1.59520
2544.00000,2.39183
2546.00000,19.59755
2548.00000,31.04076
2550.00000,41.56813
2552.00000,23.65865
2554.00000,0.81362
2556.00000,54.03355
2558.00000,55.01624
2560.00000,50.17028
2562.00000,94.15366
2564.00000,125.96346
2566.00000,111.02738
2568.00000,72.42857
2570.00000,91.07585
2572.00000,154.60086
2574.00000,120.64232
2576.00000,164.92274
2578.00000,189.59615
2580.00000,150.22572
2582.00000,215.29326
2584.00000,224.20670
2586.00000,210.47711
2588.00000,206.04869
2590.00000,188.14890
2592.00000,206.61989
2594.00000,200.93362
2596.00000,192.81122
2598.00000,229.08784
2600.00000,271.56912
2602.00000,275.77249
2604.00000,281.50940
2606.00000,296.14438
2608.00000,286.08170
2610.00000,293.62564
2612.00000,319.91422
2614.00000,313.95483
2616.00000,296.11447
2618.00000,362.82599
2620.00000,335.48981
2622.00000,311.38962
2624.00000,366.19971
2626.00000,371.87271
2628.00000,345.15604
2630.00000,367.04083
2632.00000,409.94287
2634.00000,411.26355
2636.00000,428.10516
2638.00000,451.62338
2640.00000,461.50214
2642.00000,462.65970
2644.00000,474.40897
2646.00000,491.11774
2648.00000,541.49164
2650.00000,570.29016
2652.00000,518.13135
2654.00000,511.16342
2656.00000,579.28503
2658.00000,636.11371
2660.00000,639.30682
2662.00000,665.00189
2664.00000,681.51190
2666.00000,710.05334
2668.00000,741.22223
2670.00000,734.04865
2672.00000,747.24219
2674.00000,737.36017
2676.00000,721.86395
2678.00000,721.24841
2680.00000,671.80792
2682.00000,718.19226
2684.00000,747.61420
2686.00000,697.34662
2688.00000,716.75629
2690.00000,723.75244
2692.00000,701.44971
2694.00000,694.10107
2696.00000,716.06567
2698.00000,717.50720
2700.00000,738.38159
2702.00000,768.17682
2704.00000,757.36353
2706.00000,718.45331
2708.00000,764.43878
2710.00000,786.90997
2712.00000,755.58691
2714.00000,779.84711
2716.00000,818.99658
2718.00000,823.92804
2720.00000,833.94360
2722.00000,838.17334
2724.00000,738.62671
2726.00000,760.53259
2728.00000,798.13422
2730.00000,785.78735
2732.00000,851.27509
2734.00000,833.88568
2736.00000,781.20172
2738.00000,788.18378
2740.00000,834.42377
2742.00000,822.54303
2744.00000,840.18286
2746.00000,854.42950
2748.00000,844.25031
2750.00000,888.37048
2752.00000,889.85156
2754.00000,856.08704
2756.00000,878.97137
2758.00000,950.29633
2760.00000,885.03516
2762.00000,855.28802
2764.00000,858.58264
2766.00000,841.19067
2768.00000,906.14459
2770.00000,885.11230
2772.00000,886.76483
2774.00000,928.73212
2776.00000,871.33160
2778.00000,874.22357
2780.00000,884.37012
2782.00000,885.86115
2784.00000,926.48785
2786.00000,957.08960
2788.00000,876.22321
2790.00000,819.48016
2792.00000,866.95184
2794.00000,870.50800
2796.00000,788.81812
2798.00000,807.19025
2800.00000,850.42834
2802.00000,763.16699
2804.00000,781.28326
2806.00000,789.25836
2808.00000,724.38617
2810.00000,717.70435
2812.00000,853.23999
2814.00000,792.13629
2816.00000,765.97656
2818.00000,842.01221
2820.00000,775.15509
2822.00000,727.35309
2824.00000,742.63977
2826.00000,750.25482
2828.00000,734.39484
2830.00000,769.53149
2832.00000,723.26581
2834.00000,695.68872
2836.00000,734.18707
2838.00000,719.36908
2840.00000,723.27448
2842.00000,728.16486
2844.00000,722.50409
2846.00000,728.71735
2848.00000,738.28815
2850.00000,722.34381
2852.00000,712.28729
2854.00000,744.08167
2856.00000,768.73297
2858.00000,682.29388
2860.00000,742.51129
2862.00000,879.48157
2864.00000,800.82855
2866.00000,745.17188
2868.00000,850.23706
2870.00000,847.66565
2872.00000,717.92053
2874.00000,886.45520
2876.00000,816.65344
2878.00000,659.49585
2880.00000,663.69305
2882.00000,681.13904
2884.00000,633.42291
2886.00000,611.62433
2888.00000,595.11316
2890.00000,539.64343
2892.00000,550.68768
2894.00000,562.42407
2896.00000,527.56830
2898.00000,489.55417
2900.00000,505.88977
2902.00000,514.44312
2904.00000,558.24890
2906.00000,556.82959
2908.00000,449.43814
2910.00000,459.12726
2912.00000,492.67911
2914.00000,472.44730
2916.00000,447.11694
2918.00000,465.97797
2920.00000,410.59930
2922.00000,421.03632
2924.00000,462.23892
2926.00000,372.77408
2928.00000,384.19827
2930.00000,439.14874
2932.00000,449.83810
2934.00000,430.72873
2936.00000,431.98160
2938.00000,425.30548
2940.00000,360.22623
2942.00000,325.90012
2944.00000,408.37137
2946.00000,344.47937
2948.00000,335.89996
2950.00000,376.79590
2952.00000,299.49805
2954.00000,267.74234
2956.00000,337.05908
2958.00000,313.14838
2960.00000,216.00226
2962.00000,311.21225
2964.00000,297.10617
2966.00000,240.00826
2968.00000,255.08914
2970.00000,265.73727
2972.00000,201.55295
2974.00000,279.21100
2976.00000,298.83975
2978.00000,182.24310
2980.00000,306.09369
2982.00000,225.52888
2984.00000,180.28990
2986.00000,288.92975
2988.00000,254.26518
2990.00000,233.96323
2992.00000,130.97359
2994.00000,95.95033
2996.00000,215.50110
2998.00000,138.76599
3000.00000,159.85829
3002.00000,207.50552
3004.00000,148.79735
3006.00000,130.02983
3008.00000,177.56992
3010.00000,224.22432
3012.00000,209.27011
3014.00000,197.01532
3016.00000,315.51437
3018.00000,224.03772
3020.00000,180.29279
3022.00000,344.99573
3024.00000,274.79990
3026.00000,210.91019
3028.00000,270.58612
3030.00000,290.10727
3032.00000,202.73253
3034.00000,359.55933
3036.00000,425.03357
3038.00000,298.69528
3040.00000,268.95694
3042.00000,475.59467
3044.00000,472.77307
3046.00000,382.95966
3048.00000,450.67160
3050.00000,557.77734
3052.00000,517.63147
3054.00000,557.05042
3056.00000,645.95123
3058.00000,612.85803
3060.00000,621.34448
3062.00000,586.56500
3064.00000,511.00571
3066.00000,491.82648
3068.00000,508.16187
3070.00000,323.61566
3072.00000,345.37421
3074.00000,556.46027
3076.00000,487.51938
3078.00000,275.59528
3080.00000,394.55063
3082.00000,414.44345
3084.00000,191.25835
3086.00000,490.01788
3088.00000,382.84024
3090.00000,323.63834
3092.00000,488.36697
3094.00000,305.71298
3096.00000,338.04950
3098.00000,297.29495
3100.00000,207.68797
3102.00000,313.77036
3104.00000,367.05710
3106.00000,359.41068
3108.00000,157.33928
3110.00000,93.02087
3112.00000,517.17462
3114.00000,232.92401
3116.00000,216.92506
3118.00000,487.40732
3120.00000,252.23059
3122.00000,331.95929
3124.00000,316.94791
3126.00000,292.42584
3128.00000,375.58057
3130.00000,190.35536
3132.00000,230.16275
3134.00000,312.51105
3136.00000,255.35968
3138.00000,245.69737
3140.00000,314.61267
3142.00000,307.16968
3144.00000,234.81360
3146.00000,278.27090
3148.00000,435.92728
3150.00000,176.89316
3152.00000,223.54292
3154.00000,528.53894
3156.00000,187.39967
3158.00000,292.48718
3160.00000,344.84406
3162.00000,286.87259
3164.00000,502.53363
3166.00000,498.21655
3168.00000,404.57880
3170.00000,382.64575
3172.00000,346.95776
3174.00000,209.94566
3176.00000,321.45972
3178.00000,357.38040
3180.00000,195.32144
3182.00000,163.16138
3184.00000,336.72913
3186.00000,299.09091
3188.00000,226.43906
3190.00000,356.65851
3192.00000,379.95850
3194.00000,403.95367
3196.00000,401.23288
3198.00000,339.60712
3200.00000,294.90024
