300.00000,51.49467
302.00000,50.76987
304.00000,39.00449
306.00000,25.08410
308.00000,24.23286
310.00000,38.39937
312.00000,49.03086
314.00000,42.56089
316.00000,41.37765
318.00000,46.39673
320.00000,42.15414
322.00000,35.70404
324.00000,30.27136
326.00000,25.03402
328.00000,26.77962
330.00000,36.61971
332.00000,24.25492
334.00000,19.79953
336.00000,36.02145
338.00000,46.29213
340.00000,31.94889
342.00000,28.19370
344.00000,30.83341
346.00000,27.83413
348.00000,30.91307
350.00000,43.04743
352.00000,41.74997
354.00000,33.39834
356.00000,33.20064
358.00000,27.59179
360.00000,26.96887
362.00000,26.27063
364.00000,29.00364
366.00000,42.67615
368.00000,36.63845
370.00000,28.21559
372.00000,30.82428
374.00000,35.63881
376.00000,32.63148
378.00000,29.23212
380.00000,33.15792
382.00000,37.51854
384.00000,31.86041
386.00000,28.35977
388.00000,29.98889
390.00000,34.83651
392.00000,40.18227
394.00000,44.27212
396.00000,51.25947
398.00000,62.75338
400.00000,68.27453
402.00000,64.09660
404.00000,78.27003
406.00000,94.12993
408.00000,96.00432
410.00000,100.75310
412.00000,135.80424
414.00000,167.38019
416.00000,182.42123
418.00000,202.21204
420.00000,246.14755
422.00000,292.16162
424.00000,330.25305
426.00000,363.95618
428.00000,396.31613
430.00000,423.83911
432.00000,450.94711
434.00000,482.03278
436.00000,522.24023
438.00000,567.34265
440.00000,596.93689
442.00000,627.31555
444.00000,645.91382
446.00000,635.94757
448.00000,614.70514
450.00000,589.43774
452.00000,562.55957
454.00000,528.46014
456.00000,475.07791
458.00000,399.75403
460.00000,337.22446
462.00000,296.19464
464.00000,258.14294
466.00000,213.90057
468.00000,185.11916
470.00000,166.24751
472.00000,167.32564
474.00000,231.29340
476.00000,399.93982
478.00000,684.76636
480.00000,1049.65894
482.00000,1339.22729
484.00000,1347.51819
486.00000,1120.97437
488.00000,794.85651
490.00000,516.57703
492.00000,360.33466
494.00000,268.51645
496.00000,205.28047
498.00000,150.65588
500.00000,102.70448
502.00000,80.51240
504.00000,93.79050
506.00000,78.21996
508.00000,37.11400
510.00000,30.32983
512.00000,43.95243
514.00000,55.51272
516.00000,53.81355
518.00000,43.03479
520.00000,35.99133
522.00000,36.12121
524.00000,28.71731
526.00000,19.94745
528.00000,23.04247
530.00000,22.16588
532.00000,25.76340
534.00000,26.49699
536.00000,16.68966
538.00000,6.65139
540.00000,3.76061
542.00000,9.21907
544.00000,10.34827
546.00000,3.77208
548.00000,16.11790
550.00000,44.37280
552.00000,53.56238
554.00000,51.85067
556.00000,75.44507
558.00000,57.38307
560.00000,33.26794
562.00000,40.82533
564.00000,60.64803
566.00000,62.22671
568.00000,80.63307
570.00000,109.25597
572.00000,129.82256
574.00000,153.45810
576.00000,187.98286
578.00000,221.19958
580.00000,259.07361
582.00000,312.81488
584.00000,368.79453
586.00000,431.20508
588.00000,504.52609
590.00000,576.92590
592.00000,627.32739
594.00000,652.07074
596.00000,646.57965
598.00000,602.74335
600.00000,529.28680
602.00000,465.16843
604.00000,439.35153
606.00000,439.73218
608.00000,435.22580
610.00000,414.83597
612.00000,405.13895
614.00000,400.96365
616.00000,387.31097
618.00000,370.07794
620.00000,369.99011
622.00000,355.96744
624.00000,305.60413
626.00000,246.53185
628.00000,218.09972
630.00000,188.52194
632.00000,160.46207
634.00000,139.71254
636.00000,129.60751
638.00000,138.64221
640.00000,144.34473
642.00000,121.97646
644.00000,78.34969
646.00000,47.40241
648.00000,42.45830
650.00000,30.67959
652.00000,13.81013
654.00000,11.18724
656.00000,12.64034
658.00000,19.64904
660.00000,23.52980
662.00000,28.12521
664.00000,49.79182
666.00000,87.95631
668.00000,159.72374
670.00000,269.99884
672.00000,459.02240
674.00000,827.62738
676.00000,1394.25903
678.00000,1962.23792
680.00000,2251.82422
682.00000,2101.84497
684.00000,1613.98840
686.00000,1078.98950
688.00000,690.98956
690.00000,483.44116
692.00000,399.46091
694.00000,351.04028
696.00000,316.42273
698.00000,292.47946
700.00000,263.99417
702.00000,228.87761
704.00000,191.20178
706.00000,169.42207
708.00000,151.48747
710.00000,101.55818
712.00000,87.69477
714.00000,109.28207
716.00000,128.55409
718.00000,130.77725
720.00000,127.45842
722.00000,97.63362
724.00000,61.58274
726.00000,46.06891
728.00000,42.56804
730.00000,66.05817
732.00000,112.20259
734.00000,193.15771
736.00000,350.33075
738.00000,638.56305
740.00000,1166.99438
742.00000,2083.21021
744.00000,3237.72363
746.00000,4043.93384
748.00000,3992.32642
750.00000,3137.47339
752.00000,1989.68445
754.00000,1097.23608
756.00000,612.40613
758.00000,362.07294
760.00000,226.73981
762.00000,167.97261
764.00000,150.15421
766.00000,180.29739
768.00000,222.91266
770.00000,273.80557
772.00000,348.57565
774.00000,404.84442
776.00000,419.00870
778.00000,412.62735
780.00000,392.81183
782.00000,334.96753
784.00000,268.50635
786.00000,196.67802
788.00000,132.24660
790.00000,99.71731
792.00000,90.13567
794.00000,54.72903
796.00000,24.41103
798.00000,21.92448
800.00000,9.86477
802.00000,13.65681
804.00000,18.49036
806.00000,15.33304
808.00000,14.22812
810.00000,16.08487
812.00000,29.41199
814.00000,35.96377
816.00000,26.49142
818.00000,19.51976
820.00000,21.81004
822.00000,74.42403
824.00000,130.90935
826.00000,151.77071
828.00000,234.11501
830.00000,313.91357
832.00000,345.25931
834.00000,323.22818
836.00000,271.01181
838.00000,263.01941
840.00000,259.97446
842.00000,242.99275
844.00000,243.39894
846.00000,267.24225
848.00000,285.11636
850.00000,256.20490
852.00000,196.41374
854.00000,157.39554
856.00000,110.54594
858.00000,85.98971
860.00000,76.18694
862.00000,57.24587
864.00000,59.81285
866.00000,66.40410
868.00000,66.23272
870.00000,69.68863
872.00000,78.97746
874.00000,57.86006
876.00000,31.42731
878.00000,29.67318
880.00000,37.95290
882.00000,18.25827
884.00000,13.44060
886.00000,10.31136
888.00000,0.69954
890.00000,7.84749
892.00000,5.42714
894.00000,11.49543
896.00000,14.36237
898.00000,5.48751
900.00000,23.28838
902.00000,28.13400
904.00000,18.37165
906.00000,14.94579
908.00000,18.03310
910.00000,8.14041
912.00000,0.06446
914.00000,10.13974
916.00000,27.54802
918.00000,25.01856
920.00000,18.87413
922.00000,25.93400
924.00000,45.54727
926.00000,64.02550
928.00000,69.50542
930.00000,57.91383
932.00000,54.67735
934.00000,68.74350
936.00000,68.93387
938.00000,80.47236
940.00000,98.83986
942.00000,125.00884
944.00000,182.52357
946.00000,283.72726
948.00000,465.26431
950.00000,718.75745
952.00000,940.88593
954.00000,982.30457
956.00000,833.42377
958.00000,589.74988
960.00000,357.43469
962.00000,194.63174
964.00000,107.41090
966.00000,66.35506
968.00000,46.43581
970.00000,34.79728
972.00000,24.12066
974.00000,16.38317
976.00000,25.94843
978.00000,36.48817
980.00000,28.23369
982.00000,39.77589
984.00000,48.81586
986.00000,48.60608
988.00000,58.81682
990.00000,87.39507
992.00000,111.45229
994.00000,150.30818
996.00000,234.39934
998.00000,354.49655
1000.00000,454.59232
1002.00000,531.27899
1004.00000,581.21161
1006.00000,590.96387
1008.00000,546.83197
1010.00000,432.43188
1012.00000,297.39539
1014.00000,189.52654
1016.00000,114.65441
1018.00000,63.78909
1020.00000,51.67942
1022.00000,62.21041
1024.00000,78.01788
1026.00000,105.02117
1028.00000,121.56858
1030.00000,136.32246
1032.00000,155.02206
1034.00000,163.78320
1036.00000,153.80238
1038.00000,148.10034
1040.00000,134.82614
1042.00000,103.12382
1044.00000,74.19692
1046.00000,46.29617
1048.00000,20.77945
1050.00000,5.35361
1052.00000,2.12363
1054.00000,2.97199
1056.00000,21.39147
1058.00000,34.48978
1060.00000,26.86508
1062.00000,22.15152
1064.00000,24.62043
1066.00000,35.19896
1068.00000,35.29461
1070.00000,24.80472
1072.00000,46.51018
1074.00000,42.12271
1076.00000,36.74544
1078.00000,71.34247
1080.00000,111.85342
1082.00000,124.72750
1084.00000,169.82779
1086.00000,203.69145
1088.00000,164.08328
1090.00000,152.48912
1092.00000,142.51880
1094.00000,132.34988
1096.00000,146.98270
1098.00000,192.52924
1100.00000,272.56046
1102.00000,433.56152
1104.00000,666.54626
1106.00000,898.19623
1108.00000,1048.38196
1110.00000,1030.31567
1112.00000,866.32123
1114.00000,652.93146
1116.00000,466.35791
1118.00000,310.13605
1120.00000,234.56252
1122.00000,233.12581
1124.00000,271.63162
1126.00000,367.45959
1128.00000,472.40744
1130.00000,565.37604
1132.00000,654.07166
1134.00000,776.81879
1136.00000,1033.72253
1138.00000,1470.70923
1140.00000,1990.06848
1142.00000,2387.03711
1144.00000,2460.98730
1146.00000,2119.04688
1148.00000,1566.81140
1150.00000,1049.98389
1152.00000,680.65381
1154.00000,526.85840
1156.00000,449.04947
1158.00000,375.50146
1160.00000,308.35309
1162.00000,210.13547
1164.00000,142.35739
1166.00000,116.78548
1168.00000,100.39102
1170.00000,72.96334
1172.00000,59.16151
1174.00000,101.66935
1176.00000,220.37802
1178.00000,407.41077
1180.00000,635.36920
1182.00000,846.91156
1184.00000,993.81500
1186.00000,1056.33240
1188.00000,1052.97620
1190.00000,1038.39099
1192.00000,1054.85461
1194.00000,1070.14172
1196.00000,1044.33765
1198.00000,1001.90936
1200.00000,949.93622
1202.00000,911.10114
1204.00000,914.69122
1206.00000,964.36707
1208.00000,1019.97424
1210.00000,1063.77637
1212.00000,1099.38013
1214.00000,1121.96143
1216.00000,1106.93494
1218.00000,1049.80847
1220.00000,936.72247
1222.00000,760.69165
1224.00000,553.15485
1226.00000,384.62207
1228.00000,256.40723
1230.00000,144.53821
1232.00000,72.60915
1234.00000,81.70142
1236.00000,53.55272
1238.00000,13.83367
1240.00000,4.95974
1242.00000,2.91762
1244.00000,0.68023
1246.00000,-0.32221
1248.00000,0.40246
1250.00000,1.23631
1252.00000,0.64537
1254.00000,-1.04457
1256.00000,3.97550
1258.00000,16.03025
1260.00000,21.12221
1262.00000,6.86082
1264.00000,1.10942
1266.00000,10.62994
1268.00000,38.03264
1270.00000,80.86959
1272.00000,60.09217
1274.00000,69.01704
1276.00000,97.12184
1278.00000,68.20270
1280.00000,109.54012
1282.00000,135.43777
1284.00000,150.46318
1286.00000,199.92014
1288.00000,246.85477
1290.00000,300.61432
1292.00000,380.93979
1294.00000,489.88049
1296.00000,621.84692
1298.00000,787.96881
1300.00000,991.13013
1302.00000,1232.95142
1304.00000,1480.63965
1306.00000,1646.11670
1308.00000,1635.44409
1310.00000,1461.78601
1312.00000,1242.71777
1314.00000,1084.33276
1316.00000,981.75659
1318.00000,982.31042
1320.00000,1016.61780
1322.00000,1054.64575
1324.00000,1169.02832
1326.00000,1269.32849
1328.00000,1409.79041
1330.00000,1682.13672
1332.00000,2159.37622
1334.00000,2931.54395
1336.00000,4009.40918
1338.00000,5218.74463
1340.00000,6171.62012
1342.00000,6389.77393
1344.00000,5641.41260
1346.00000,4323.42139
1348.00000,2948.51880
1350.00000,1864.60278
1352.00000,1236.85449
1354.00000,859.29120
1356.00000,635.67206
1358.00000,516.75134
1360.00000,413.97610
1362.00000,381.59140
1364.00000,354.81931
1366.00000,310.54086
1368.00000,298.46030
1370.00000,324.65292
1372.00000,328.88538
1374.00000,277.02621
1376.00000,211.89069
1378.00000,185.21581
1380.00000,126.10852
1382.00000,88.06956
1384.00000,71.31436
1386.00000,35.49634
1388.00000,19.84914
1390.00000,7.32900
1392.00000,-2.83376
1394.00000,4.13917
1396.00000,24.98284
1398.00000,26.64248
1400.00000,9.49407
1402.00000,17.72208
1404.00000,57.71048
1406.00000,64.13728
1408.00000,92.28553
1410.00000,113.02216
1412.00000,114.42503
1414.00000,136.40375
1416.00000,122.64193
1418.00000,113.14759
1420.00000,116.08115
1422.00000,124.86467
1424.00000,180.12743
1426.00000,225.37569
1428.00000,270.84842
1430.00000,303.72705
1432.00000,284.97269
1434.00000,302.21048
1436.00000,367.42905
1438.00000,482.10510
1440.00000,653.53705
1442.00000,884.11554
1444.00000,1239.33374
1446.00000,1789.08228
1448.00000,2428.46509
1450.00000,2869.43359
1452.00000,2866.90283
1454.00000,2365.71655
1456.00000,1656.36829
1458.00000,1089.38586
1460.00000,727.13171
1462.00000,491.99719
1464.00000,351.26419
1466.00000,284.33752
1468.00000,239.77095
1470.00000,180.46574
1472.00000,179.90105
1474.00000,190.19205
1476.00000,169.97028
1478.00000,208.17487
1480.00000,193.24400
1482.00000,161.89105
1484.00000,130.70047
1486.00000,59.43521
1488.00000,38.77858
1490.00000,22.98274
1492.00000,7.57794
1494.00000,13.70261
1496.00000,26.63081
1498.00000,106.32207
1500.00000,145.47424
1502.00000,156.56686
1504.00000,258.51465
1506.00000,352.86688
1508.00000,477.73737
1510.00000,636.61841
1512.00000,821.00153
1514.00000,1111.00940
1516.00000,1613.85022
1518.00000,2349.45874
1520.00000,3493.37329
1522.00000,5353.19287
1524.00000,8029.96289
1526.00000,11254.61426
1528.00000,13641.39355
1530.00000,13827.75977
1532.00000,11856.76465
1534.00000,8933.39355
1536.00000,6372.55762
1538.00000,4619.99707
1540.00000,3405.41968
1542.00000,2617.93213
1544.00000,2009.91516
1546.00000,1555.45605
1548.00000,1250.49170
1550.00000,959.72235
1552.00000,809.75677
1554.00000,695.07135
1556.00000,557.97699
1558.00000,449.24506
1560.00000,319.09335
1562.00000,242.73018
1564.00000,184.19009
1566.00000,131.31203
1568.00000,151.92451
1570.00000,87.05762
1572.00000,68.93949
1574.00000,128.43649
1576.00000,136.88286
1578.00000,125.07682
1580.00000,150.35284
1582.00000,187.37605
1584.00000,204.59822
1586.00000,221.20377
1588.00000,224.77051
1590.00000,255.19347
1592.00000,279.44418
1594.00000,255.69041
1596.00000,266.39539
1598.00000,265.26108
1600.00000,299.61993
1602.00000,350.44351
1604.00000,317.77383
1606.00000,374.95660
1608.00000,372.94504
1610.00000,337.03073
1612.00000,362.74866
1614.00000,237.60562
1616.00000,208.29279
1618.00000,209.26846
1620.00000,128.39293
1622.00000,100.29454
1624.00000,121.83026
1626.00000,92.82888
1628.00000,56.36687
1630.00000,75.84875
1632.00000,38.66192
1634.00000,59.67468
1636.00000,74.31121
1638.00000,48.44234
1640.00000,72.93516
1642.00000,28.59684
1644.00000,47.75519
1646.00000,78.47631
1648.00000,27.97977
1650.00000,85.45979
1652.00000,70.31934
1654.00000,41.82242
1656.00000,66.15166
1658.00000,53.71563
1660.00000,84.72516
1662.00000,44.21543
1664.00000,5.47812
1666.00000,66.73507
1668.00000,47.45252
1670.00000,44.18725
1672.00000,35.90544
1674.00000,27.93602
1676.00000,84.63370
1678.00000,54.95152
1680.00000,38.34118
1682.00000,58.02827
1684.00000,49.57903
1686.00000,47.02246
1688.00000,52.31252
1690.00000,24.18715
1692.00000,9.26448
1694.00000,64.27361
1696.00000,29.23236
1698.00000,52.02541
1700.00000,73.21819
1702.00000,4.37910
1704.00000,47.28679
1706.00000,65.66061
1708.00000,44.06261
1710.00000,25.54805
1712.00000,14.77239
1714.00000,45.31496
1716.00000,23.37065
1718.00000,31.24009
1720.00000,93.82793
1722.00000,12.71353
1724.00000,56.09980
1726.00000,93.83421
1728.00000,49.99493
1730.00000,70.40697
1732.00000,32.58593
1734.00000,29.49298
1736.00000,67.93284
1738.00000,78.18687
1740.00000,76.80964
1742.00000,73.27847
1744.00000,72.38638
1746.00000,46.64492
1748.00000,3.18706
1750.00000,56.00150
1752.00000,80.54285
1754.00000,50.26656
1756.00000,35.68633
1758.00000,38.99567
1760.00000,38.99657
1762.00000,68.60734
1764.00000,87.54876
1766.00000,42.02126
1768.00000,47.86670
1770.00000,49.64884
1772.00000,47.98355
1774.00000,63.47152
1776.00000,48.33799
1778.00000,47.30410
1780.00000,50.92123
1782.00000,73.32973
1784.00000,117.16361
1786.00000,74.04701
1788.00000,49.19753
1790.00000,70.47882
1792.00000,75.93343
1794.00000,57.20975
1796.00000,81.40863
1798.00000,70.13663
1800.00000,71.62169
1802.00000,149.89737
1804.00000,81.61568
1806.00000,91.23975
1808.00000,85.20182
1810.00000,19.23075
1812.00000,140.88091
1814.00000,73.75373
1816.00000,65.80306
1818.00000,141.23061
1820.00000,59.54162
1822.00000,80.74686
1824.00000,59.34290
1826.00000,59.23896
1828.00000,115.08550
1830.00000,48.03802
1832.00000,81.93008
1834.00000,109.32103
1836.00000,80.97296
1838.00000,107.52458
1840.00000,140.31795
1842.00000,80.51458
1844.00000,126.62717
1846.00000,224.35101
1848.00000,37.45993
1850.00000,67.41865
1852.00000,96.04092
1854.00000,51.53413
1856.00000,131.14876
1858.00000,139.03926
1860.00000,72.03410
1862.00000,110.26392
1864.00000,189.40506
1866.00000,75.08845
1868.00000,133.21278
1870.00000,132.25424
1872.00000,56.74118
1874.00000,115.79723
1876.00000,120.96171
1878.00000,135.50179
1880.00000,123.08054
1882.00000,76.13659
1884.00000,97.93352
1886.00000,105.32723
1888.00000,71.49195
1890.00000,52.07992
1892.00000,93.13731
1894.00000,133.75040
1896.00000,65.52073
1898.00000,36.40982
1900.00000,89.96664
1902.00000,59.99916
1904.00000,77.63339
1906.00000,112.16426
1908.00000,118.73660
1910.00000,109.93111
1912.00000,84.33308
1914.00000,37.05175
1916.00000,78.41180
1918.00000,133.22008
1920.00000,46.70010
1922.00000,147.39063
1924.00000,107.62093
1926.00000,22.40545
1928.00000,120.10981
1930.00000,27.43254
1932.00000,115.15125
1934.00000,148.43626
1936.00000,35.44967
1938.00000,126.78300
1940.00000,126.12449
1942.00000,120.12905
1944.00000,152.77264
1946.00000,153.30690
1948.00000,158.92520
1950.00000,141.31351
1952.00000,150.76979
1954.00000,173.33229
1956.00000,135.54961
1958.00000,138.63147
1960.00000,173.95168
1962.00000,153.67368
1964.00000,86.21103
1966.00000,108.25310
1968.00000,118.67885
1970.00000,94.13190
1972.00000,119.74302
1974.00000,181.91458
1976.00000,47.43060
1978.00000,49.05851
1980.00000,140.33934
1982.00000,89.84509
1984.00000,74.44369
1986.00000,104.63509
1988.00000,100.13526
1990.00000,88.85017
1992.00000,130.23065
1994.00000,73.28152
1996.00000,45.62636
1998.00000,75.55581
2000.00000,12.75765
2002.00000,25.00795
2004.00000,44.63319
2006.00000,44.12589
2008.00000,36.92849
2010.00000,45.57999
2012.00000,58.45419
2014.00000,65.64159
2016.00000,72.42757
2018.00000,76.69649
2020.00000,79.77712
2022.00000,87.73739
2024.00000,93.45330
2026.00000,77.42529
2028.00000,61.65765
2030.00000,53.10197
2032.00000,46.91507
2034.00000,41.00700
2036.00000,36.37115
2038.00000,40.80301
2040.00000,43.65940
2042.00000,35.76283
2044.00000,38.52381
2046.00000,55.00713
2048.00000,48.47879
2050.00000,24.37828
2052.00000,34.46922
2054.00000,35.35994
2056.00000,33.42422
2058.00000,37.34963
2060.00000,33.32972
2062.00000,21.33756
2064.00000,23.41201
2066.00000,21.26158
2068.00000,13.61436
2070.00000,41.41581
2072.00000,49.74783
2074.00000,34.69202
2076.00000,32.04981
2078.00000,58.08041
2080.00000,79.16784
2082.00000,81.41868
2084.00000,105.66413
2086.00000,155.48732
2088.00000,149.90414
2090.00000,144.65987
2092.00000,145.57478
2094.00000,120.80779
2096.00000,80.06788
2098.00000,84.85752
2100.00000,74.20148
2102.00000,41.70717
2104.00000,41.93841
2106.00000,53.46885
2108.00000,33.16373
2110.00000,33.36743
2112.00000,64.58683
2114.00000,43.53441
2116.00000,40.78932
2118.00000,50.09855
2120.00000,44.15324
2122.00000,35.69135
2124.00000,44.88527
2126.00000,33.91865
2128.00000,31.37997
2130.00000,57.61259
2132.00000,44.69361
2134.00000,14.40893
2136.00000,12.65227
2138.00000,28.01437
2140.00000,18.85459
2142.00000,25.93225
2144.00000,45.80746
2146.00000,53.24639
2148.00000,46.77362
2150.00000,54.23754
2152.00000,54.74884
2154.00000,42.51916
2156.00000,27.73453
2158.00000,20.99547
2160.00000,36.43323
2162.00000,57.18456
2164.00000,57.29420
2166.00000,35.99004
2168.00000,27.05339
2170.00000,30.71037
2172.00000,42.56514
2174.00000,51.99939
2176.00000,45.56439
2178.00000,50.00497
2180.00000,57.08755
2182.00000,51.57420
2184.00000,46.82508
2186.00000,69.63200
2188.00000,66.13296
2190.00000,45.19506
2192.00000,60.13249
2194.00000,98.60863
2196.00000,89.96908
2198.00000,87.41866
2200.00000,120.45018
2202.00000,122.27438
2204.00000,104.48658
2206.00000,108.81136
2208.00000,118.15067
2210.00000,93.72861
2212.00000,66.35849
2214.00000,65.68158
2216.00000,69.22695
2218.00000,54.93525
2220.00000,43.06767
2222.00000,44.24052
2224.00000,51.73705
2226.00000,48.31897
2228.00000,30.41920
2230.00000,27.39492
2232.00000,43.21762
2234.00000,31.62345
2236.00000,0.46243
2238.00000,30.89040
2240.00000,18.92447
2242.00000,0.29498
2244.00000,33.27865
2246.00000,70.25040
2248.00000,45.28921
2250.00000,57.53460
2252.00000,83.65285
2254.00000,62.18733
2256.00000,97.58464
2258.00000,126.68650
2260.00000,114.88133
2262.00000,116.68536
2264.00000,177.81854
2266.00000,194.47218
2268.00000,241.60468
2270.00000,332.16159
2272.00000,374.65771
2274.00000,369.57184
2276.00000,368.38239
2278.00000,335.88437
2280.00000,258.17450
2282.00000,214.48785
2284.00000,168.58011
2286.00000,136.11909
2288.00000,124.42853
2290.00000,106.37923
2292.00000,92.79920
2294.00000,94.62918
2296.00000,84.28547
2298.00000,53.44234
2300.00000,55.28943
2302.00000,74.21252
2304.00000,70.64117
2306.00000,56.32476
2308.00000,68.39405
2310.00000,51.82216
2312.00000,38.59607
2314.00000,44.79232
2316.00000,41.83184
2318.00000,27.76324
2320.00000,51.65001
2322.00000,53.48540
2324.00000,17.19305
2326.00000,34.68776
2328.00000,29.13240
2330.00000,31.13047
2332.00000,40.36580
2334.00000,13.98124
2336.00000,11.44867
2338.00000,12.87651
2340.00000,8.27000
2342.00000,10.19665
2344.00000,14.72671
2346.00000,4.88995
2348.00000,2.49583
2350.00000,11.79781
2352.00000,8.23774
2354.00000,8.33273
2356.00000,34.26023
2358.00000,36.34436
2360.00000,0.28957
2362.00000,27.40916
2364.00000,25.36576
2366.00000,23.34556
2368.00000,42.99929
2370.00000,21.26938
2372.00000,47.27594
2374.00000,64.59137
2376.00000,48.79442
2378.00000,47.17166
2380.00000,49.22508
2382.00000,51.92978
2384.00000,29.45583
2386.00000,6.12387
2388.00000,42.85875
2390.00000,19.11681
2392.00000,5.95052
2394.00000,38.92688
2396.00000,37.50103
2398.00000,23.74018
2400.00000,32.60837
2402.00000,63.14197
2404.00000,89.26142
2406.00000,90.40765
2408.00000,61.88888
2410.00000,72.63792
2412.00000,122.74680
2414.00000,123.25414
2416.00000,100.17537
2418.00000,120.18169
2420.00000,147.72699
2422.00000,118.36779
2424.00000,89.29272
2426.00000,85.63828
2428.00000,75.57091
2430.00000,56.35309
2432.00000,67.18170
2434.00000,48.79337
2436.00000,14.51658
2438.00000,-1.12674
2440.00000,3.18825
2442.00000,8.16949
2444.00000,12.47968
2446.00000,9.97073
2448.00000,-0.30155
2450.00000,2.11641
2452.00000,30.81919
2454.00000,29.98482
2456.00000,-3.78436
2458.00000,-2.36977
2460.00000,30.54562
2462.00000,66.25163
2464.00000,64.04467
2466.00000,37.02536
2468.00000,67.35645
2470.00000,98.66710
2472.00000,99.91494
2474.00000,95.53104
2476.00000,99.67314
2478.00000,61.76970
2480.00000,89.78532
2482.00000,134.69756
2484.00000,77.62180
2486.00000,59.74088
2488.00000,77.84198
2490.00000,68.41878
2492.00000,45.41403
2494.00000,83.62090
2496.00000,87.15720
2498.00000,64.79259
2500.00000,73.21973
2502.00000,105.17254
2504.00000,88.12642
2506.00000,88.30386
2508.00000,118.87150
2510.00000,117.46054
2512.00000,67.99715
2514.00000,75.20429
2516.00000,96.41228
2518.00000,88.63052
2520.00000,91.39606
2522.00000,65.25041
2524.00000,54.35556
2526.00000,77.01456
2528.00000,87.99163
2530.00000,56.98438
2532.00000,58.85894
2534.00000,68.37722
2536.00000,55.97694
2538.00000,74.01937
2540.00000,100.50499
2542.00000,101.20463
2544.00000,73.78940
2546.00000,59.85259
2548.00000,100.43269
2550.00000,95.41287
2552.00000,63.49168
2554.00000,74.90462
2556.00000,92.02445
2558.00000,76.55109
2560.00000,83.05085
2562.00000,92.09554
2564.00000,36.05502
2566.00000,33.56850
2568.00000,42.45589
2570.00000,18.76102
2572.00000,4.69371
2574.00000,52.59454
2576.00000,64.11510
2578.00000,28.39524
2580.00000,8.91224
2582.00000,41.49511
2584.00000,86.29301
2586.00000,69.59725
2588.00000,45.72997
2590.00000,78.79211
2592.00000,48.08046
2594.00000,44.52217
2596.00000,64.48556
2598.00000,54.54012
2600.00000,42.91896
2602.00000,34.52076
2604.00000,65.98407
2606.00000,93.14078
2608.00000,54.30129
2610.00000,55.79890
2612.00000,53.89709
2614.00000,46.24772
2616.00000,66.02739
2618.00000,74.52918
2620.00000,39.03681
2622.00000,25.79725
2624.00000,67.05729
2626.00000,88.59693
2628.00000,39.34226
2630.00000,39.88544
2632.00000,63.26694
2634.00000,39.33548
2636.00000,93.12971
2638.00000,68.92539
2640.00000,57.40944
2642.00000,126.38467
2644.00000,119.22909
2646.00000,130.23706
2648.00000,124.43578
2650.00000,129.91675
2652.00000,204.49548
2654.00000,197.23010
2656.00000,128.30675
2658.00000,136.88002
2660.00000,222.65570
2662.00000,207.82707
2664.00000,221.16107
2666.00000,239.94527
2668.00000,230.82413
2670.00000,256.30688
2672.00000,306.27802
2674.00000,283.40918
2676.00000,230.58192
2678.00000,222.77069
2680.00000,182.83536
2682.00000,154.99007
2684.00000,189.06567
2686.00000,207.11716
2688.00000,129.13599
2690.00000,183.80881
2692.00000,157.70862
2694.00000,84.85427
2696.00000,161.95767
2698.00000,140.66562
2700.00000,107.21569
2702.00000,121.34594
2704.00000,146.02899
2706.00000,146.02148
2708.00000,102.64556
2710.00000,106.25600
2712.00000,150.28026
2714.00000,143.21735
2716.00000,136.84714
2718.00000,106.37299
2720.00000,70.08307
2722.00000,71.71491
2724.00000,85.73106
2726.00000,47.51538
2728.00000,35.76352
2730.00000,74.59235
2732.00000,82.22221
2734.00000,112.50725
2736.00000,133.02805
2738.00000,143.52515
2740.00000,132.53926
2742.00000,30.39308
2744.00000,84.32403
2746.00000,114.34460
2748.00000,35.26265
2750.00000,116.40696
2752.00000,63.63745
2754.00000,16.03872
2756.00000,64.86646
2758.00000,62.72544
2760.00000,16.09447
2762.00000,108.30610
2764.00000,158.06723
2766.00000,46.14142
2768.00000,70.76851
2770.00000,105.05006
2772.00000,120.38840
2774.00000,128.37816
2776.00000,110.05967
2778.00000,127.50898
2780.00000,138.86923
2782.00000,118.42482
2784.00000,91.16228
2786.00000,80.81548
2788.00000,89.46895
2790.00000,105.76112
2792.00000,111.29621
2794.00000,97.19702
2796.00000,83.86491
2798.00000,60.67712
2800.00000,54.52929
2802.00000,85.18137
2804.00000,85.25721
2806.00000,86.60329
2808.00000,102.81458
2810.00000,124.19043
2812.00000,142.66663
2814.00000,118.07716
2816.00000,107.75588
2818.00000,107.10990
2820.00000,76.49917
2822.00000,111.34291
2824.00000,67.26695
2826.00000,26.55107
2828.00000,88.86802
2830.00000,75.11398
2832.00000,86.95715
2834.00000,75.42302
2836.00000,41.15811
2838.00000,86.90306
2840.00000,80.28604
2842.00000,60.51493
2844.00000,128.32416
2846.00000,209.52089
2848.00000,87.96996
2850.00000,108.98660
2852.00000,175.89575
2854.00000,140.55164
2856.00000,194.29030
2858.00000,241.03462
2860.00000,183.72739
2862.00000,177.71115
2864.00000,329.55072
2866.00000,297.39771
2868.00000,275.17651
2870.00000,320.43759
2872.00000,334.63242
2874.00000,325.24161
2876.00000,273.55731
2878.00000,257.83606
2880.00000,256.09296
2882.00000,181.12697
2884.00000,166.02495
2886.00000,170.97037
2888.00000,154.15039
2890.00000,145.91275
2892.00000,163.49036
2894.00000,112.44714
2896.00000,84.33097
2898.00000,112.79298
2900.00000,84.73156
2902.00000,89.99606
2904.00000,64.10639
2906.00000,61.44460
2908.00000,134.04584
2910.00000,71.32503
2912.00000,86.95133
2914.00000,126.07248
2916.00000,90.94023
2918.00000,124.54340
2920.00000,128.30157
2922.00000,107.46723
2924.00000,105.94970
2926.00000,112.61758
2928.00000,97.32366
2930.00000,112.52994
2932.00000,143.70062
2934.00000,142.05786
2936.00000,127.12593
2938.00000,132.86559
2940.00000,118.36283
2942.00000,113.76231
2944.00000,179.57214
2946.00000,151.98718
2948.00000,87.13459
2950.00000,79.04649
2952.00000,100.74773
2954.00000,53.00506
2956.00000,33.86354
2958.00000,73.55811
2960.00000,103.85259
2962.00000,84.94857
2964.00000,115.51004
2966.00000,130.76730
2968.00000,147.41385
2970.00000,205.23798
2972.00000,139.41849
2974.00000,169.78426
2976.00000,232.48352
2978.00000,174.85669
2980.00000,127.31271
2982.00000,126.02441
2984.00000,153.29964
2986.00000,162.95345
2988.00000,129.31122
2990.00000,104.90955
2992.00000,98.84335
2994.00000,80.19374
2996.00000,46.33165
2998.00000,59.08910
3000.00000,127.20392
3002.00000,147.40788
3004.00000,103.20867
3006.00000,112.30155
3008.00000,162.91745
3010.00000,178.45720
3012.00000,146.63620
3014.00000,115.11348
3016.00000,99.01945
3018.00000,92.23932
3020.00000,112.33311
3022.00000,113.33678
3024.00000,43.06263
3026.00000,132.27493
3028.00000,155.62871
3030.00000,85.84557
3032.00000,156.00325
3034.00000,206.54051
3036.00000,299.02826
3038.00000,278.55194
3040.00000,144.16058
3042.00000,285.95261
3044.00000,322.48260
3046.00000,339.43027
3048.00000,417.40195
3050.00000,390.96381
3052.00000,485.16177
3054.00000,533.71155
3056.00000,521.33331
3058.00000,549.76837
3060.00000,494.02460
3062.00000,505.67548
3064.00000,471.08279
3066.00000,358.79257
3068.00000,383.19254
3070.00000,355.75897
3072.00000,282.75937
3074.00000,253.97505
3076.00000,248.53110
3078.00000,168.97728
3080.00000,232.36130
3082.00000,229.68910
3084.00000,80.98940
3086.00000,195.05980
3088.00000,167.83388
3090.00000,104.31212
3092.00000,174.97479
3094.00000,219.52370
3096.00000,123.48241
3098.00000,168.68924
3100.00000,332.18912
3102.00000,326.38574
3104.00000,161.07709
3106.00000,304.95169
3108.00000,389.87225
3110.00000,194.17839
3112.00000,169.35948
3114.00000,232.11420
3116.00000,158.06316
3118.00000,129.57649
3120.00000,283.78845
3122.00000,135.62947
3124.00000,78.70185
3126.00000,172.81169
3128.00000,207.35767
3130.00000,183.70532
3132.00000,167.49664
3134.00000,209.79608
3136.00000,271.81815
3138.00000,268.77542
3140.00000,222.74706
3142.00000,300.75708
3144.00000,358.24756
3146.00000,231.70982
3148.00000,143.19356
3150.00000,239.25925
3152.00000,227.65549
3154.00000,105.04526
3156.00000,196.86189
3158.00000,209.05603
3160.00000,154.50075
3162.00000,208.94017
3164.00000,327.09119
3166.00000,219.90546
3168.00000,214.94492
3170.00000,236.80096
3172.00000,190.40486
3174.00000,278.57220
3176.00000,308.31186
3178.00000,271.95068
3180.00000,222.50772
3182.00000,163.08797
3184.00000,114.17554
3186.00000,121.96037
3188.00000,137.25456
3190.00000,114.29810
3192.00000,115.93094
3194.00000,179.08243
3196.00000,225.39905
3198.00000,159.84030
3200.00000,49.39546
