300.00000,31.11556
302.00000,36.91112
304.00000,39.65752
306.00000,30.91348
308.00000,30.96331
310.00000,43.45169
312.00000,43.71395
314.00000,40.82139
316.00000,40.47060
318.00000,40.11753
320.00000,37.97243
322.00000,39.10399
324.00000,43.72383
326.00000,46.82529
328.00000,45.83577
330.00000,46.93443
332.00000,59.21011
334.00000,61.47020
336.00000,54.86390
338.00000,58.62190
340.00000,71.06312
342.00000,77.21175
344.00000,73.72675
346.00000,71.85402
348.00000,82.20190
350.00000,95.39921
352.00000,103.61653
354.00000,102.66883
356.00000,96.42520
358.00000,96.18401
360.00000,99.45693
362.00000,94.55525
364.00000,91.93662
366.00000,105.10802
368.00000,96.28480
370.00000,85.95397
372.00000,90.37994
374.00000,100.99319
376.00000,104.00000
378.00000,86.98678
380.00000,82.61475
382.00000,87.51008
384.00000,72.47869
386.00000,88.93018
388.00000,108.84333
390.00000,102.63133
392.00000,84.39204
394.00000,88.08084
396.00000,105.49725
398.00000,114.57756
400.00000,116.22225
402.00000,131.05420
404.00000,159.15727
406.00000,181.52078
408.00000,201.68921
410.00000,227.17763
412.00000,248.47731
414.00000,284.92648
416.00000,339.18991
418.00000,394.63043
420.00000,443.48102
422.00000,507.07962
424.00000,566.32886
426.00000,607.29150
428.00000,649.24902
430.00000,722.16284
432.00000,800.31586
434.00000,865.74286
436.00000,918.67517
438.00000,968.79553
440.00000,1023.26508
442.00000,1067.58411
444.00000,1092.32910
446.00000,1092.27551
448.00000,1065.25049
450.00000,1034.32446
452.00000,985.58154
454.00000,910.07269
456.00000,819.31805
458.00000,718.17456
460.00000,628.49353
462.00000,546.47021
464.00000,461.65356
466.00000,385.91553
468.00000,330.31339
470.00000,282.94708
472.00000,251.95874
474.00000,279.17639
476.00000,411.68167
478.00000,677.03259
480.00000,991.64136
482.00000,1208.75867
484.00000,1219.55188
486.00000,1015.82648
488.00000,725.39282
490.00000,475.20566
492.00000,310.10956
494.00000,213.39619
496.00000,161.34868
498.00000,120.53144
500.00000,81.99943
502.00000,64.37791
504.00000,47.82200
506.00000,40.89269
508.00000,46.02584
510.00000,48.84896
512.00000,46.87100
514.00000,53.87231
516.00000,64.46228
518.00000,58.02053
520.00000,30.12836
522.00000,18.08648
524.00000,23.81924
526.00000,31.09821
528.00000,31.22767
530.00000,28.37862
532.00000,24.52786
534.00000,26.03444
536.00000,37.65237
538.00000,52.82505
540.00000,55.02888
542.00000,50.98711
544.00000,54.93189
546.00000,67.71872
548.00000,76.21229
550.00000,89.87672
552.00000,101.36297
554.00000,98.37940
556.00000,86.81864
558.00000,85.63591
560.00000,88.55416
562.00000,93.61581
564.00000,103.70619
566.00000,111.57817
568.00000,130.77162
570.00000,157.37022
572.00000,183.61221
574.00000,212.26773
576.00000,241.81918
578.00000,275.11676
580.00000,323.32736
582.00000,390.08484
584.00000,462.49460
586.00000,550.27991
588.00000,651.68207
590.00000,749.77283
592.00000,829.70544
594.00000,891.24518
596.00000,903.49817
598.00000,877.59326
600.00000,854.77521
602.00000,844.15411
604.00000,835.06439
606.00000,837.72015
608.00000,847.17694
610.00000,839.57416
612.00000,826.71655
614.00000,803.63324
616.00000,776.58893
618.00000,749.54657
620.00000,703.08429
622.00000,644.07098
624.00000,572.09814
626.00000,487.41205
628.00000,404.49603
630.00000,342.88095
632.00000,290.14731
634.00000,240.06764
636.00000,205.36978
638.00000,195.07166
640.00000,179.90813
642.00000,149.73738
644.00000,107.00040
646.00000,59.90922
648.00000,32.10074
650.00000,19.38086
652.00000,13.26098
654.00000,11.03067
656.00000,13.56065
658.00000,27.96613
660.00000,44.16514
662.00000,61.74889
664.00000,90.58422
666.00000,120.71230
668.00000,170.66852
670.00000,265.88113
672.00000,446.05167
674.00000,772.69452
676.00000,1270.16284
678.00000,1794.69482
680.00000,2101.39160
682.00000,2007.51257
684.00000,1566.64746
686.00000,1084.28870
688.00000,734.36456
690.00000,527.35352
692.00000,435.34320
694.00000,375.19006
696.00000,337.36374
698.00000,316.50839
700.00000,286.62875
702.00000,259.81927
704.00000,230.59534
706.00000,193.65082
708.00000,158.73055
710.00000,142.46045
712.00000,138.15158
714.00000,137.02122
716.00000,136.55925
718.00000,140.62904
720.00000,149.13391
722.00000,130.90819
724.00000,99.18696
726.00000,77.63564
728.00000,58.42562
730.00000,58.80865
732.00000,97.28291
734.00000,174.93301
736.00000,301.79327
738.00000,547.24786
740.00000,1025.98218
742.00000,1851.25757
744.00000,2895.11426
746.00000,3675.46558
748.00000,3692.30981
750.00000,2961.16870
752.00000,1934.04138
754.00000,1108.51025
756.00000,632.99231
758.00000,411.31805
760.00000,302.61572
762.00000,236.90111
764.00000,217.05130
766.00000,222.45410
768.00000,266.54184
770.00000,328.50052
772.00000,370.66577
774.00000,410.76178
776.00000,431.76727
778.00000,422.81216
780.00000,391.08853
782.00000,346.68753
784.00000,286.14716
786.00000,218.34608
788.00000,155.86948
790.00000,110.44465
792.00000,89.85730
794.00000,72.35800
796.00000,58.36092
798.00000,50.55630
800.00000,36.25431
802.00000,21.67651
804.00000,12.44035
806.00000,8.00615
808.00000,5.53609
810.00000,4.43146
812.00000,2.15251
814.00000,8.84277
816.00000,24.33496
818.00000,31.22763
820.00000,32.71002
822.00000,52.24182
824.00000,84.05365
826.00000,124.43720
828.00000,206.13573
830.00000,265.14905
832.00000,283.93765
834.00000,277.02844
836.00000,246.29471
838.00000,206.88762
840.00000,211.57680
842.00000,243.76154
844.00000,250.21846
846.00000,243.87506
848.00000,249.66467
850.00000,240.68378
852.00000,201.00853
854.00000,154.50705
856.00000,100.41136
858.00000,63.23888
860.00000,56.12945
862.00000,59.67954
864.00000,48.50660
866.00000,56.97825
868.00000,65.20079
870.00000,60.02960
872.00000,64.35883
874.00000,57.39397
876.00000,42.43321
878.00000,38.10540
880.00000,45.06648
882.00000,38.59442
884.00000,28.71251
886.00000,20.25564
888.00000,15.42083
890.00000,20.07905
892.00000,30.09451
894.00000,21.92536
896.00000,7.63639
898.00000,9.64221
900.00000,13.39625
902.00000,10.38567
904.00000,7.53890
906.00000,17.06450
908.00000,33.23471
910.00000,24.37930
912.00000,21.44649
914.00000,15.83056
916.00000,1.16675
918.00000,22.90829
920.00000,25.20337
922.00000,20.22255
924.00000,37.18587
926.00000,57.65404
928.00000,50.63508
930.00000,67.81196
932.00000,95.42062
934.00000,97.67723
936.00000,104.47134
938.00000,106.60767
940.00000,122.92250
942.00000,152.32297
944.00000,191.47667
946.00000,308.98376
948.00000,476.09790
950.00000,686.16455
952.00000,896.08655
954.00000,966.32037
956.00000,856.08289
958.00000,637.56708
960.00000,416.90564
962.00000,266.99371
964.00000,199.01025
966.00000,156.92845
968.00000,131.61592
970.00000,126.30552
972.00000,108.12904
974.00000,96.29966
976.00000,91.64792
978.00000,85.05508
980.00000,82.54746
982.00000,99.68465
984.00000,95.86695
986.00000,87.44029
988.00000,104.41885
990.00000,128.17143
992.00000,167.31078
994.00000,232.72183
996.00000,323.12177
998.00000,431.26044
1000.00000,551.12750
1002.00000,643.00958
1004.00000,690.27521
1006.00000,692.10938
1008.00000,638.35333
1010.00000,527.15393
1012.00000,394.78815
1014.00000,280.63565
1016.00000,203.58757
1018.00000,164.94032
1020.00000,150.55905
1022.00000,140.06635
1024.00000,141.94698
1026.00000,179.65968
1028.00000,203.91870
1030.00000,219.21503
1032.00000,234.86852
1034.00000,242.93155
1036.00000,245.11171
1038.00000,223.30995
1040.00000,198.81026
1042.00000,186.17897
1044.00000,157.94389
1046.00000,111.95879
1048.00000,77.18372
1050.00000,59.43128
1052.00000,42.45439
1054.00000,30.29610
1056.00000,30.37179
1058.00000,30.33428
1060.00000,23.78737
1062.00000,21.48657
1064.00000,15.04811
1066.00000,7.94120
1068.00000,3.26179
1070.00000,0.07437
1072.00000,0.14412
1074.00000,-0.99497
1076.00000,5.06188
1078.00000,25.98384
1080.00000,46.39895
1082.00000,39.65384
1084.00000,84.26010
1086.00000,126.67450
1088.00000,85.96163
1090.00000,76.56232
1092.00000,53.21432
1094.00000,42.42669
1096.00000,70.94582
1098.00000,100.43223
1100.00000,164.02789
1102.00000,298.18362
1104.00000,503.27411
1106.00000,723.51447
1108.00000,865.00305
1110.00000,885.53845
1112.00000,749.49530
1114.00000,527.31958
1116.00000,356.87402
1118.00000,213.32054
1120.00000,152.47099
1122.00000,151.85559
1124.00000,156.68839
1126.00000,217.43996
1128.00000,319.18161
1130.00000,425.78259
1132.00000,515.17328
1134.00000,619.46790
1136.00000,850.75330
1138.00000,1242.83203
1140.00000,1727.36340
1142.00000,2138.94629
1144.00000,2266.27026
1146.00000,2017.60449
1148.00000,1528.12024
1150.00000,1046.78003
1152.00000,740.58337
1154.00000,565.65381
1156.00000,488.13751
1158.00000,451.49069
1160.00000,390.41016
1162.00000,289.49292
1164.00000,183.25388
1166.00000,121.65779
1168.00000,110.40471
1170.00000,106.51291
1172.00000,89.02346
1174.00000,101.33710
1176.00000,177.99161
1178.00000,330.40826
1180.00000,556.44098
1182.00000,794.30688
1184.00000,942.49713
1186.00000,986.78021
1188.00000,1003.36279
1190.00000,1014.04175
1192.00000,1019.44788
1194.00000,1040.47791
1196.00000,1056.16650
1198.00000,993.96045
1200.00000,930.64148
1202.00000,914.22968
1204.00000,915.15149
1206.00000,921.20776
1208.00000,1021.10236
1210.00000,1065.99365
1212.00000,1085.44360
1214.00000,1139.77844
1216.00000,1102.34106
1218.00000,1062.15662
1220.00000,969.54773
1222.00000,798.93781
1224.00000,620.58197
1226.00000,443.35040
1228.00000,312.16821
1230.00000,221.26819
1232.00000,152.32893
1234.00000,123.63852
1236.00000,103.57230
1238.00000,87.53198
1240.00000,73.26488
1242.00000,54.17847
1244.00000,48.17665
1246.00000,55.39711
1248.00000,45.48204
1250.00000,20.78530
1252.00000,27.57624
1254.00000,26.19901
1256.00000,10.82221
1258.00000,1.02273
1260.00000,4.22390
1262.00000,4.86187
1264.00000,1.53397
1266.00000,0.25899
1268.00000,2.01598
1270.00000,1.23956
1272.00000,0.24485
1274.00000,-0.01743
1276.00000,0.03780
1278.00000,4.15988
1280.00000,18.44365
1282.00000,24.27428
1284.00000,44.93937
1286.00000,87.60004
1288.00000,115.93985
1290.00000,166.71246
1292.00000,250.16521
1294.00000,358.15717
1296.00000,477.38419
1298.00000,599.53046
1300.00000,784.98108
1302.00000,1024.00854
1304.00000,1246.67578
1306.00000,1389.66882
1308.00000,1417.94348
1310.00000,1338.55286
1312.00000,1143.48779
1314.00000,910.86572
1316.00000,863.93945
1318.00000,880.08820
1320.00000,884.62054
1322.00000,911.59717
1324.00000,984.78503
1326.00000,1070.72327
1328.00000,1209.41479
1330.00000,1450.66724
1332.00000,1859.81067
1334.00000,2549.49561
1336.00000,3504.53662
1338.00000,4615.16992
1340.00000,5558.68701
1342.00000,5853.94385
1344.00000,5286.74023
1346.00000,4123.34180
1348.00000,2842.12451
1350.00000,1834.16516
1352.00000,1219.83643
1354.00000,872.84583
1356.00000,654.82593
1358.00000,520.68799
1360.00000,464.57181
1362.00000,391.93573
1364.00000,358.84445
1366.00000,368.27234
1368.00000,357.94110
1370.00000,342.58331
1372.00000,346.62979
1374.00000,301.57764
1376.00000,223.68607
1378.00000,211.66463
1380.00000,153.36613
1382.00000,91.43851
1384.00000,62.24326
1386.00000,37.84961
1388.00000,9.33756
1390.00000,-0.71028
1392.00000,0.77548
1394.00000,-0.14870
1396.00000,0.20538
1398.00000,4.96989
1400.00000,11.89531
1402.00000,39.33087
1404.00000,81.07303
1406.00000,86.46840
1408.00000,109.23546
1410.00000,126.06068
1412.00000,137.85226
1414.00000,173.90076
1416.00000,128.67917
1418.00000,105.75016
1420.00000,116.66453
1422.00000,120.37016
1424.00000,189.60890
1426.00000,253.71237
1428.00000,283.06296
1430.00000,301.81293
1432.00000,321.17450
1434.00000,315.62991
1436.00000,381.73047
1438.00000,507.34540
1440.00000,645.35876
1442.00000,866.09937
1444.00000,1163.48157
1446.00000,1645.61658
1448.00000,2263.17017
1450.00000,2708.59033
1452.00000,2718.98877
1454.00000,2310.48730
1456.00000,1684.49194
1458.00000,1101.43530
1460.00000,737.81616
1462.00000,527.12738
1464.00000,407.22537
1466.00000,328.44485
1468.00000,252.82846
1470.00000,212.34442
1472.00000,220.77823
1474.00000,219.32928
1476.00000,192.65939
1478.00000,216.45917
1480.00000,210.34842
1482.00000,181.60143
1484.00000,146.83110
1486.00000,89.94937
1488.00000,45.38308
1490.00000,20.47727
1492.00000,4.61224
1494.00000,5.02265
1496.00000,49.27402
1498.00000,114.52937
1500.00000,138.01682
1502.00000,160.91542
1504.00000,253.78152
1506.00000,317.01840
1508.00000,408.49088
1510.00000,526.55365
1512.00000,687.06787
1514.00000,992.91827
1516.00000,1372.84155
1518.00000,1994.42456
1520.00000,3000.91650
1522.00000,4530.14111
1524.00000,6933.51807
1526.00000,9929.56348
1528.00000,12310.69922
1530.00000,12778.80664
1532.00000,11095.40527
1534.00000,8493.97559
1536.00000,6076.82520
1538.00000,4347.79102
1540.00000,3254.49438
1542.00000,2461.91895
1544.00000,1857.56348
1546.00000,1411.38074
1548.00000,1102.66663
1550.00000,901.08179
1552.00000,725.90601
1554.00000,572.27997
1556.00000,467.37833
1558.00000,393.98941
1560.00000,284.59695
1562.00000,183.73145
1564.00000,127.03928
1566.00000,91.74226
1568.00000,51.03404
1570.00000,64.87615
1572.00000,69.13488
1574.00000,54.05928
1576.00000,83.99206
1578.00000,141.51080
1580.00000,168.98523
1582.00000,175.44382
1584.00000,188.18610
1586.00000,195.30069
1588.00000,196.93233
1590.00000,240.38127
1592.00000,241.29607
1594.00000,168.41518
1596.00000,249.24210
1598.00000,269.57349
1600.00000,260.26550
1602.00000,310.94370
1604.00000,327.79843
1606.00000,347.85760
1608.00000,327.03244
1610.00000,302.80142
1612.00000,312.27368
1614.00000,231.59668
1616.00000,153.55080
1618.00000,158.67238
1620.00000,143.80495
1622.00000,10.85065
1624.00000,63.34972
1626.00000,87.66128
1628.00000,34.28336
1630.00000,59.32200
1632.00000,67.59743
1634.00000,55.13558
1636.00000,34.70570
1638.00000,26.91375
1640.00000,40.22596
1642.00000,13.27914
1644.00000,-3.45809
1646.00000,1.85579
1648.00000,-0.02809
1650.00000,12.83963
1652.00000,23.92197
1654.00000,12.85460
1656.00000,1.52083
1658.00000,19.11357
1660.00000,10.84781
1662.00000,9.31962
1664.00000,28.47901
1666.00000,33.71941
1668.00000,10.76296
1670.00000,17.01924
1672.00000,49.77396
1674.00000,48.48371
1676.00000,1.82876
1678.00000,25.43309
1680.00000,27.82109
1682.00000,6.47888
1684.00000,19.55145
1686.00000,7.69561
1688.00000,-8.40691
1690.00000,23.26052
1692.00000,72.75328
1694.00000,67.38411
1696.00000,61.61827
1698.00000,42.73998
1700.00000,29.90723
1702.00000,48.03638
1704.00000,58.53028
1706.00000,62.27579
1708.00000,65.90631
1710.00000,65.36154
1712.00000,62.38387
1714.00000,80.06721
1716.00000,72.71883
1718.00000,75.11372
1720.00000,102.58611
1722.00000,65.29540
1724.00000,61.30416
1726.00000,56.02433
1728.00000,37.07665
1730.00000,54.26530
1732.00000,31.44819
1734.00000,25.92757
1736.00000,38.24045
1738.00000,38.00671
1740.00000,52.29605
1742.00000,38.31581
1744.00000,59.29108
1746.00000,77.36683
1748.00000,23.59642
1750.00000,86.02409
1752.00000,105.77571
1754.00000,81.40007
1756.00000,101.59489
1758.00000,87.46421
1760.00000,36.09664
1762.00000,53.40412
1764.00000,86.16538
1766.00000,25.93451
1768.00000,54.08359
1770.00000,76.45929
1772.00000,59.95834
1774.00000,56.55724
1776.00000,67.64300
1778.00000,90.49284
1780.00000,88.32506
1782.00000,76.98499
1784.00000,91.57169
1786.00000,76.28976
1788.00000,66.22343
1790.00000,79.02611
1792.00000,82.56155
1794.00000,67.61759
1796.00000,129.87950
1798.00000,128.71875
1800.00000,85.64752
1802.00000,117.06051
1804.00000,38.80510
1806.00000,75.29029
1808.00000,126.91219
1810.00000,50.14225
1812.00000,38.82641
1814.00000,110.70583
1816.00000,108.58948
1818.00000,81.04612
1820.00000,141.76851
1822.00000,86.98560
1824.00000,65.28125
1826.00000,131.62802
1828.00000,158.42468
1830.00000,77.18620
1832.00000,109.17155
1834.00000,118.11488
1836.00000,106.48258
1838.00000,179.88116
1840.00000,122.44175
1842.00000,85.10715
1844.00000,117.33723
1846.00000,139.91803
1848.00000,128.48837
1850.00000,136.78087
1852.00000,94.83336
1854.00000,110.50375
1856.00000,231.24687
1858.00000,118.16463
1860.00000,80.62852
1862.00000,156.80791
1864.00000,160.72337
1866.00000,94.87921
1868.00000,154.01700
1870.00000,130.17957
1872.00000,81.11798
1874.00000,171.77167
1876.00000,112.96046
1878.00000,73.60246
1880.00000,113.49416
1882.00000,115.07466
1884.00000,43.57396
1886.00000,100.53329
1888.00000,79.15320
1890.00000,62.58633
1892.00000,169.62886
1894.00000,28.72576
1896.00000,84.37885
1898.00000,147.01479
1900.00000,45.66071
1902.00000,101.00328
1904.00000,148.41370
1906.00000,127.43732
1908.00000,107.49380
1910.00000,119.13895
1912.00000,90.84538
1914.00000,114.93463
1916.00000,100.11320
1918.00000,32.00025
1920.00000,58.67506
1922.00000,84.14392
1924.00000,52.01857
1926.00000,66.46722
1928.00000,138.36238
1930.00000,59.65683
1932.00000,90.67439
1934.00000,146.20656
1936.00000,106.21465
1938.00000,92.36936
1940.00000,112.10262
1942.00000,83.71856
1944.00000,93.68295
1946.00000,155.24437
1948.00000,45.65872
1950.00000,83.69088
1952.00000,97.23252
1954.00000,33.26545
1956.00000,117.21183
1958.00000,27.30341
1960.00000,79.48572
1962.00000,161.58069
1964.00000,50.98452
1966.00000,109.17851
1968.00000,139.87344
1970.00000,120.15755
1972.00000,127.44666
1974.00000,131.39236
1976.00000,83.46156
1978.00000,115.21849
1980.00000,110.49271
1982.00000,14.01143
1984.00000,94.55864
1986.00000,67.20715
1988.00000,44.02309
1990.00000,85.11955
1992.00000,28.42658
1994.00000,26.02408
1996.00000,48.93101
1998.00000,49.91814
2000.00000,40.17492
2002.00000,48.79472
2004.00000,69.52429
2006.00000,76.32268
2008.00000,68.49432
2010.00000,90.67619
2012.00000,112.75143
2014.00000,112.62366
2016.00000,117.93675
2018.00000,145.06464
2020.00000,144.23129
2022.00000,134.47514
2024.00000,141.73697
2026.00000,115.73554
2028.00000,78.35853
2030.00000,87.48711
2032.00000,109.66236
2034.00000,76.92033
2036.00000,96.67952
2038.00000,112.50668
2040.00000,84.51008
2042.00000,64.13374
2044.00000,93.77941
2046.00000,83.43784
2048.00000,60.75274
2050.00000,78.98456
2052.00000,100.39697
2054.00000,90.53385
2056.00000,69.00937
2058.00000,65.10286
2060.00000,73.15547
2062.00000,60.02746
2064.00000,70.31393
2066.00000,89.29807
2068.00000,78.40260
2070.00000,60.33929
2072.00000,77.43894
2074.00000,83.80692
2076.00000,70.35094
2078.00000,90.36769
2080.00000,125.53291
2082.00000,118.38361
2084.00000,119.99186
2086.00000,172.15059
2088.00000,177.40555
2090.00000,165.08975
2092.00000,166.39938
2094.00000,150.80731
2096.00000,90.77995
2098.00000,85.86404
2100.00000,113.08986
2102.00000,112.80167
2104.00000,85.13417
2106.00000,84.78693
2108.00000,81.97082
2110.00000,78.32341
2112.00000,95.28151
2114.00000,117.94963
2116.00000,105.42546
2118.00000,86.16461
2120.00000,94.47050
2122.00000,116.92648
2124.00000,112.16521
2126.00000,98.53529
2128.00000,107.79705
2130.00000,119.65734
2132.00000,83.60605
2134.00000,83.69255
2136.00000,75.71121
2138.00000,38.19057
2140.00000,39.99735
2142.00000,61.10325
2144.00000,63.74488
2146.00000,61.34982
2148.00000,71.37968
2150.00000,59.70161
2152.00000,65.21996
2154.00000,71.61285
2156.00000,63.95871
2158.00000,68.74171
2160.00000,62.39632
2162.00000,84.59756
2164.00000,97.50060
2166.00000,55.99674
2168.00000,74.75858
2170.00000,97.59126
2172.00000,79.90028
2174.00000,59.96985
2176.00000,81.73319
2178.00000,62.21967
2180.00000,44.02518
2182.00000,62.52083
2184.00000,68.03562
2186.00000,41.72298
2188.00000,58.59523
2190.00000,91.79261
2192.00000,86.51479
2194.00000,98.72192
2196.00000,116.89735
2198.00000,125.48468
2200.00000,130.93094
2202.00000,148.22653
2204.00000,170.78775
2206.00000,179.49892
2208.00000,176.05896
2210.00000,171.27100
2212.00000,154.39644
2214.00000,126.28842
2216.00000,103.86481
2218.00000,95.56968
2220.00000,90.34216
2222.00000,84.88033
2224.00000,69.93615
2226.00000,53.84731
2228.00000,55.52550
2230.00000,66.62124
2232.00000,62.27893
2234.00000,68.42245
2236.00000,95.51965
2238.00000,84.23434
2240.00000,43.87319
2242.00000,46.26645
2244.00000,74.42275
2246.00000,54.37083
2248.00000,68.95985
2250.00000,84.96441
2252.00000,80.91825
2254.00000,83.12273
2256.00000,96.13929
2258.00000,94.55731
2260.00000,113.52075
2262.00000,159.21301
2264.00000,178.64085
2266.00000,206.80937
2268.00000,271.46118
2270.00000,359.72272
2272.00000,432.30563
2274.00000,460.03564
2276.00000,444.96033
2278.00000,406.36194
2280.00000,349.65494
2282.00000,272.70883
2284.00000,232.42538
2286.00000,215.39626
2288.00000,180.80724
2290.00000,132.38539
2292.00000,125.67306
2294.00000,131.45328
2296.00000,126.44083
2298.00000,122.36333
2300.00000,126.88537
2302.00000,110.61579
2304.00000,113.75672
2306.00000,134.18504
2308.00000,107.88787
2310.00000,86.59817
2312.00000,125.39042
2314.00000,139.56627
2316.00000,83.38223
2318.00000,125.40489
2320.00000,103.89053
2322.00000,62.92290
2324.00000,91.88357
2326.00000,99.59532
2328.00000,87.14016
2330.00000,73.04910
2332.00000,61.09394
2334.00000,47.30669
2336.00000,38.15279
2338.00000,34.95658
2340.00000,45.73922
2342.00000,52.78329
2344.00000,16.63265
2346.00000,-6.33890
2348.00000,14.74212
2350.00000,32.84680
2352.00000,2.47890
2354.00000,7.95594
2356.00000,22.25305
2358.00000,22.96940
2360.00000,23.61077
2362.00000,22.72771
2364.00000,25.91120
2366.00000,28.74439
2368.00000,27.85320
2370.00000,27.57697
2372.00000,24.59993
2374.00000,24.84739
2376.00000,37.81238
2378.00000,48.45345
2380.00000,20.86000
2382.00000,31.86134
2384.00000,42.56491
2386.00000,13.91914
2388.00000,21.98584
2390.00000,30.22999
2392.00000,19.17479
2394.00000,5.23246
2396.00000,1.10099
2398.00000,-8.49431
2400.00000,36.73090
2402.00000,66.19094
2404.00000,39.93645
2406.00000,92.87819
2408.00000,83.20067
2410.00000,58.16408
2412.00000,86.48960
2414.00000,102.56099
2416.00000,93.95841
2418.00000,87.67608
2420.00000,109.18484
2422.00000,135.94244
2424.00000,110.52363
2426.00000,108.91135
2428.00000,103.31087
2430.00000,56.24466
2432.00000,32.45255
2434.00000,53.33563
2436.00000,39.63648
2438.00000,6.21961
2440.00000,24.57764
2442.00000,16.95681
2444.00000,2.42545
2446.00000,-0.04858
2448.00000,-0.07816
2450.00000,1.27134
2452.00000,26.37229
2454.00000,28.80682
2456.00000,1.15159
2458.00000,-1.33470
2460.00000,14.07961
2462.00000,36.01435
2464.00000,51.00475
2466.00000,53.33296
2468.00000,54.70935
2470.00000,56.63406
2472.00000,60.04716
2474.00000,84.27177
2476.00000,122.50288
2478.00000,70.62397
2480.00000,60.49654
2482.00000,101.95167
2484.00000,88.01279
2486.00000,86.13696
2488.00000,56.85094
2490.00000,39.20224
2492.00000,51.37938
2494.00000,13.15627
2496.00000,-6.52233
2498.00000,15.31674
2500.00000,34.09566
2502.00000,24.82546
2504.00000,48.78129
2506.00000,32.62836
2508.00000,-7.79665
2510.00000,16.73171
2512.00000,91.14869
2514.00000,57.64728
2516.00000,17.03782
2518.00000,60.58571
2520.00000,81.99850
2522.00000,32.28923
2524.00000,49.17636
2526.00000,88.63676
2528.00000,40.25882
2530.00000,38.76478
2532.00000,38.70238
2534.00000,43.15516
2536.00000,72.85181
2538.00000,81.92849
2540.00000,46.22687
2542.00000,38.49667
2544.00000,53.28939
2546.00000,29.33939
2548.00000,26.70972
2550.00000,37.44895
2552.00000,50.98347
2554.00000,56.28474
2556.00000,33.25781
2558.00000,27.09542
2560.00000,64.01453
2562.00000,85.10418
2564.00000,39.81861
2566.00000,53.09568
2568.00000,90.52908
2570.00000,77.61589
2572.00000,32.70284
2574.00000,51.91393
2576.00000,71.73167
2578.00000,52.01655
2580.00000,34.82804
2582.00000,66.81932
2584.00000,74.82006
2586.00000,82.81379
2588.00000,97.15836
2590.00000,92.26044
2592.00000,96.51255
2594.00000,96.57970
2596.00000,107.95207
2598.00000,122.63145
2600.00000,96.78735
2602.00000,103.55970
2604.00000,119.42165
2606.00000,125.83186
2608.00000,132.92516
2610.00000,92.74346
2612.00000,114.61919
2614.00000,142.90491
2616.00000,98.80718
2618.00000,105.67649
2620.00000,135.67621
2622.00000,126.41794
2624.00000,100.31019
2626.00000,120.40860
2628.00000,118.95799
2630.00000,107.57809
2632.00000,118.05921
2634.00000,147.43643
2636.00000,165.08911
2638.00000,157.15366
2640.00000,143.86781
2642.00000,154.43179
2644.00000,182.09383
2646.00000,166.93456
2648.00000,169.65143
2650.00000,206.86661
2652.00000,210.27135
2654.00000,172.81247
2656.00000,196.75346
2658.00000,251.60823
2660.00000,259.42569
2662.00000,265.21490
2664.00000,336.57260
2666.00000,353.73544
2668.00000,340.89401
2670.00000,424.01828
2672.00000,384.67014
2674.00000,365.46518
2676.00000,368.91226
2678.00000,304.24466
2680.00000,290.57935
2682.00000,267.99664
2684.00000,234.07231
2686.00000,233.44234
2688.00000,244.39540
2690.00000,165.08435
2692.00000,145.55392
2694.00000,191.88329
2696.00000,180.42867
2698.00000,181.80801
2700.00000,176.84657
2702.00000,150.41235
2704.00000,143.39705
2706.00000,190.37811
2708.00000,188.36940
2710.00000,179.82849
2712.00000,178.71396
2714.00000,152.39670
2716.00000,185.66327
2718.00000,138.81285
2720.00000,94.84184
2722.00000,149.43845
2724.00000,114.82905
2726.00000,79.41156
2728.00000,83.72159
2730.00000,96.95387
2732.00000,94.80898
2734.00000,83.24698
2736.00000,81.26939
2738.00000,91.07018
2740.00000,98.36514
2742.00000,96.58789
2744.00000,102.50896
2746.00000,106.18780
2748.00000,112.85580
2750.00000,129.99072
2752.00000,65.25157
2754.00000,77.85702
2756.00000,115.74371
2758.00000,36.01882
2760.00000,101.12998
2762.00000,127.31388
2764.00000,80.50918
2766.00000,79.35113
2768.00000,105.85529
2770.00000,66.90571
2772.00000,67.50284
2774.00000,112.87077
2776.00000,82.18831
2778.00000,86.17973
2780.00000,93.46159
2782.00000,117.15414
2784.00000,162.59177
2786.00000,130.00995
2788.00000,152.49115
2790.00000,187.22989
2792.00000,183.97044
2794.00000,200.34283
2796.00000,156.62225
2798.00000,160.57542
2800.00000,186.16289
2802.00000,132.94019
2804.00000,124.76849
2806.00000,127.63890
2808.00000,110.31617
2810.00000,110.74719
2812.00000,165.92354
2814.00000,183.18283
2816.00000,132.25127
2818.00000,84.60713
2820.00000,109.85558
2822.00000,135.92665
2824.00000,90.75150
2826.00000,81.25299
2828.00000,165.29114
2830.00000,166.38762
2832.00000,116.73988
2834.00000,93.29625
2836.00000,102.98970
2838.00000,114.55832
2840.00000,166.35516
2842.00000,150.83621
2844.00000,132.92198
2846.00000,195.08299
2848.00000,163.97595
2850.00000,200.22057
2852.00000,275.94040
2854.00000,279.31006
2856.00000,261.65118
2858.00000,330.24442
2860.00000,325.59894
2862.00000,303.23511
2864.00000,428.10413
2866.00000,453.32620
2868.00000,397.03098
2870.00000,444.55524
2872.00000,538.43896
2874.00000,400.29489
2876.00000,413.02731
2878.00000,412.22580
2880.00000,295.11679
2882.00000,281.30209
2884.00000,256.56445
2886.00000,184.11670
2888.00000,156.38387
2890.00000,174.88687
2892.00000,79.78291
2894.00000,96.51286
2896.00000,156.30066
2898.00000,126.35653
2900.00000,89.98328
2902.00000,119.68133
2904.00000,159.22890
2906.00000,170.13927
2908.00000,175.34923
2910.00000,183.13882
2912.00000,167.68872
2914.00000,166.40895
2916.00000,194.29034
2918.00000,196.84273
2920.00000,202.05852
2922.00000,130.40045
2924.00000,94.20355
2926.00000,205.17715
2928.00000,118.35661
2930.00000,122.86852
2932.00000,178.53709
2934.00000,119.66491
2936.00000,175.79787
2938.00000,231.99504
2940.00000,191.63486
2942.00000,128.73636
2944.00000,156.09726
2946.00000,168.77536
2948.00000,135.16324
2950.00000,118.06856
2952.00000,141.52774
2954.00000,112.28748
2956.00000,77.19905
2958.00000,94.07205
2960.00000,104.23605
2962.00000,33.04888
2964.00000,84.52891
2966.00000,119.85555
2968.00000,108.35078
2970.00000,155.19432
2972.00000,131.16397
2974.00000,187.35939
2976.00000,213.89014
2978.00000,138.32924
2980.00000,202.18925
2982.00000,233.52762
2984.00000,166.83366
2986.00000,140.66078
2988.00000,225.13000
2990.00000,158.36414
2992.00000,152.85037
2994.00000,184.94835
2996.00000,107.85712
2998.00000,95.99564
3000.00000,105.15765
3002.00000,101.63010
3004.00000,92.69932
3006.00000,79.51708
3008.00000,64.58795
3010.00000,97.50952
3012.00000,123.83057
3014.00000,79.27978
3016.00000,72.98059
3018.00000,97.85141
3020.00000,134.23581
3022.00000,141.49533
3024.00000,94.24934
3026.00000,151.26753
3028.00000,185.52908
3030.00000,125.79098
3032.00000,112.09093
3034.00000,212.64914
3036.00000,214.20685
3038.00000,181.43204
3040.00000,236.98190
3042.00000,241.50520
3044.00000,348.20190
3046.00000,406.94385
3048.00000,371.78296
3050.00000,444.10916
3052.00000,532.42841
3054.00000,551.30151
3056.00000,604.00055
3058.00000,688.83130
3060.00000,539.40308
3062.00000,588.24237
3064.00000,594.76294
3066.00000,350.63812
3068.00000,276.19287
3070.00000,368.72079
3072.00000,326.83963
3074.00000,180.53188
3076.00000,176.07593
3078.00000,180.86073
3080.00000,177.26604
3082.00000,240.87018
3084.00000,288.10028
3086.00000,132.60568
3088.00000,126.74319
3090.00000,162.67287
3092.00000,145.67352
3094.00000,210.08554
3096.00000,232.82484
3098.00000,121.48853
3100.00000,65.90917
3102.00000,169.92563
3104.00000,147.08653
3106.00000,106.15149
3108.00000,150.73494
3110.00000,196.42834
3112.00000,148.13016
3114.00000,218.79202
3116.00000,211.54259
3118.00000,116.19476
3120.00000,112.33058
3122.00000,122.72239
3124.00000,236.29248
3126.00000,275.18552
3128.00000,202.89450
3130.00000,275.99423
3132.00000,186.20499
3134.00000,165.19983
3136.00000,223.55399
3138.00000,113.72457
3140.00000,149.13715
3142.00000,232.11719
3144.00000,270.65140
3146.00000,262.46707
3148.00000,202.64499
3150.00000,261.71384
3152.00000,253.74451
3154.00000,185.76276
3156.00000,300.86591
3158.00000,302.66223
3160.00000,256.64963
3162.00000,235.17766
3164.00000,257.56046
3166.00000,387.96381
3168.00000,258.05283
3170.00000,137.81915
3172.00000,235.59895
3174.00000,218.37665
3176.00000,197.76259
3178.00000,260.90161
3180.00000,307.18445
3182.00000,269.57620
3184.00000,328.11734
3186.00000,261.47931
3188.00000,212.54094
3190.00000,281.21973
3192.00000,177.54636
3194.00000,209.99054
3196.00000,243.04071
3198.00000,220.53444
3200.00000,278.40097
