300.00000,57.66133
302.00000,46.17178
304.00000,36.41637
306.00000,32.88758
308.00000,31.15355
310.00000,29.65999
312.00000,31.22612
314.00000,25.75134
316.00000,38.14439
318.00000,54.42152
320.00000,52.27536
322.00000,62.02867
324.00000,69.17884
326.00000,72.51161
328.00000,80.85558
330.00000,90.91296
332.00000,87.75115
334.00000,78.39611
336.00000,73.72447
338.00000,82.85982
340.00000,106.58123
342.00000,103.31596
344.00000,90.66846
346.00000,92.53273
348.00000,99.89118
350.00000,112.57694
352.00000,107.22023
354.00000,94.64825
356.00000,98.81313
358.00000,105.27096
360.00000,94.96927
362.00000,78.98396
364.00000,74.02107
366.00000,75.47478
368.00000,63.91251
370.00000,55.13181
372.00000,60.12061
374.00000,71.52574
376.00000,77.18752
378.00000,72.27293
380.00000,70.45936
382.00000,93.36844
384.00000,133.60963
386.00000,134.15709
388.00000,124.34696
390.00000,141.69304
392.00000,177.10837
394.00000,193.39264
396.00000,206.50244
398.00000,235.34590
400.00000,273.73190
402.00000,309.57047
404.00000,362.58704
406.00000,430.52374
408.00000,505.40466
410.00000,584.47205
412.00000,669.64709
414.00000,764.36835
416.00000,865.74219
418.00000,964.16919
420.00000,1059.32874
422.00000,1175.87769
424.00000,1318.72888
426.00000,1469.80566
428.00000,1609.17188
430.00000,1736.56348
432.00000,1869.09399
434.00000,2007.95093
436.00000,2140.61548
438.00000,2255.97119
440.00000,2351.21069
442.00000,2405.82520
444.00000,2426.08447
446.00000,2424.52588
448.00000,2386.19043
450.00000,2292.58057
452.00000,2158.19995
454.00000,2008.36731
456.00000,1851.83374
458.00000,1677.14734
460.00000,1491.29761
462.00000,1312.54663
464.00000,1143.17615
466.00000,973.28278
468.00000,834.80151
470.00000,718.89966
472.00000,594.62701
474.00000,469.07254
476.00000,401.94467
478.00000,346.48740
480.00000,283.96445
482.00000,232.23676
484.00000,197.64198
486.00000,174.18201
488.00000,139.05360
490.00000,98.81013
492.00000,77.98890
494.00000,66.96485
496.00000,52.82529
498.00000,41.06641
500.00000,39.43507
502.00000,43.05684
504.00000,48.47835
506.00000,51.19761
508.00000,46.86443
510.00000,43.32703
512.00000,58.58062
514.00000,59.82263
516.00000,47.04159
518.00000,41.91970
520.00000,43.63972
522.00000,28.61524
524.00000,18.90467
526.00000,17.48392
528.00000,18.38432
530.00000,50.26667
532.00000,64.50011
534.00000,52.39339
536.00000,37.12648
538.00000,30.98247
540.00000,39.91597
542.00000,47.17021
544.00000,47.73407
546.00000,55.03916
548.00000,72.47559
550.00000,67.57118
552.00000,55.30117
554.00000,57.59748
556.00000,67.42287
558.00000,92.23235
560.00000,123.23168
562.00000,140.63506
564.00000,148.47954
566.00000,186.31064
568.00000,242.27490
570.00000,293.23978
572.00000,348.17068
574.00000,420.97424
576.00000,457.81509
578.00000,506.14166
580.00000,592.53235
582.00000,690.30890
584.00000,783.58942
586.00000,878.02148
588.00000,966.57288
590.00000,1051.82080
592.00000,1154.69055
594.00000,1274.31055
596.00000,1370.58875
598.00000,1458.10974
600.00000,1578.06213
602.00000,1710.94287
604.00000,1805.82849
606.00000,1842.53076
608.00000,1855.50854
610.00000,1883.76001
612.00000,1883.02344
614.00000,1833.36414
616.00000,1757.03625
618.00000,1667.01941
620.00000,1538.67920
622.00000,1403.64954
624.00000,1276.92859
626.00000,1157.27234
628.00000,1038.80359
630.00000,908.19885
632.00000,789.06482
634.00000,682.07605
636.00000,588.91431
638.00000,535.17035
640.00000,462.86996
642.00000,384.25613
644.00000,328.37875
646.00000,283.80200
648.00000,234.34843
650.00000,197.39586
652.00000,177.50795
654.00000,162.02690
656.00000,144.70824
658.00000,130.36597
660.00000,122.21481
662.00000,118.41650
664.00000,113.19401
666.00000,101.87317
668.00000,94.75847
670.00000,104.83244
672.00000,120.11092
674.00000,118.60531
676.00000,153.98399
678.00000,177.86481
680.00000,171.44814
682.00000,179.30927
684.00000,175.16020
686.00000,151.50560
688.00000,130.25230
690.00000,121.98124
692.00000,104.86589
694.00000,80.82079
696.00000,73.87428
698.00000,88.99920
700.00000,102.69157
702.00000,95.66744
704.00000,73.84097
706.00000,64.64430
708.00000,89.60928
710.00000,131.92560
712.00000,134.38908
714.00000,113.06184
716.00000,93.43604
718.00000,77.84946
720.00000,76.92198
722.00000,68.36864
724.00000,55.75185
726.00000,51.83690
728.00000,49.48244
730.00000,52.46920
732.00000,56.93341
734.00000,58.79720
736.00000,63.18914
738.00000,81.66928
740.00000,112.46431
742.00000,171.95259
744.00000,255.70325
746.00000,314.64148
748.00000,321.58472
750.00000,274.48169
752.00000,201.11426
754.00000,139.09613
756.00000,101.12213
758.00000,78.98138
760.00000,70.76133
762.00000,77.97648
764.00000,89.08410
766.00000,78.70084
768.00000,72.48367
770.00000,83.43433
772.00000,90.91552
774.00000,83.73296
776.00000,82.28886
778.00000,82.84857
780.00000,79.16479
782.00000,83.63711
784.00000,87.82457
786.00000,72.49932
788.00000,48.42345
790.00000,42.44769
792.00000,49.28168
794.00000,45.54475
796.00000,48.00318
798.00000,54.81871
800.00000,32.94268
802.00000,24.69312
804.00000,24.41921
806.00000,28.14076
808.00000,37.97375
810.00000,30.06250
812.00000,20.97639
814.00000,18.53478
816.00000,25.53367
818.00000,40.38228
820.00000,31.22931
822.00000,21.77842
824.00000,19.97711
826.00000,18.86033
828.00000,37.95220
830.00000,50.13945
832.00000,43.15371
834.00000,35.63237
836.00000,50.64157
838.00000,74.05355
840.00000,75.27455
842.00000,69.91051
844.00000,82.86104
846.00000,86.28788
848.00000,80.07719
850.00000,64.95700
852.00000,57.01335
854.00000,70.86378
856.00000,63.77938
858.00000,47.56432
860.00000,38.48828
862.00000,34.72041
864.00000,32.02896
866.00000,23.44126
868.00000,13.28465
870.00000,23.40536
872.00000,57.16269
874.00000,52.56085
876.00000,24.80896
878.00000,17.73231
880.00000,34.86493
882.00000,36.50607
884.00000,46.05096
886.00000,47.77272
888.00000,41.20831
890.00000,54.01366
892.00000,56.58726
894.00000,46.66825
896.00000,32.39891
898.00000,29.81262
900.00000,54.68531
902.00000,63.75032
904.00000,54.35182
906.00000,52.82604
908.00000,64.19511
910.00000,54.72375
912.00000,44.35653
914.00000,33.53119
916.00000,14.82581
918.00000,11.58287
920.00000,19.02217
922.00000,22.35854
924.00000,17.59739
926.00000,17.29528
928.00000,34.15310
930.00000,44.84856
932.00000,49.44006
934.00000,55.25995
936.00000,47.78887
938.00000,42.13369
940.00000,31.60434
942.00000,25.24754
944.00000,39.18027
946.00000,41.74648
948.00000,54.34385
950.00000,74.01536
952.00000,89.37106
954.00000,109.94853
956.00000,97.68213
958.00000,81.61211
960.00000,75.10674
962.00000,58.46613
964.00000,57.97554
966.00000,61.82682
968.00000,61.53068
970.00000,56.74722
972.00000,48.04609
974.00000,56.15015
976.00000,50.36253
978.00000,43.75343
980.00000,69.39938
982.00000,69.72338
984.00000,89.83042
986.00000,111.14142
988.00000,105.95457
990.00000,124.52831
992.00000,176.17314
994.00000,239.89516
996.00000,313.15210
998.00000,417.75931
1000.00000,539.62817
1002.00000,544.20496
1004.00000,462.61740
1006.00000,373.39676
1008.00000,260.87582
1010.00000,201.07800
1012.00000,158.57167
1014.00000,108.67193
1016.00000,83.12142
1018.00000,84.36168
1020.00000,103.05518
1022.00000,96.52385
1024.00000,85.09303
1026.00000,143.74797
1028.00000,178.09268
1030.00000,183.80440
1032.00000,179.58133
1034.00000,161.02129
1036.00000,142.74384
1038.00000,144.62593
1040.00000,120.80531
1042.00000,78.28001
1044.00000,89.55959
1046.00000,62.60441
1048.00000,54.23073
1050.00000,78.14495
1052.00000,73.09317
1054.00000,60.46366
1056.00000,84.18782
1058.00000,79.36699
1060.00000,58.46398
1062.00000,119.70831
1064.00000,89.61926
1066.00000,52.85758
1068.00000,68.33421
1070.00000,89.74179
1072.00000,127.94535
1074.00000,137.16867
1076.00000,135.98393
1078.00000,186.07483
1080.00000,309.41470
1082.00000,444.87592
1084.00000,523.61438
1086.00000,557.29181
1088.00000,548.78015
1090.00000,416.08267
1092.00000,302.27817
1094.00000,243.51195
1096.00000,211.50764
1098.00000,203.49606
1100.00000,167.78166
1102.00000,135.79416
1104.00000,124.47147
1106.00000,114.00262
1108.00000,100.27451
1110.00000,85.37697
1112.00000,74.45201
1114.00000,64.35122
1116.00000,45.82398
1118.00000,27.58745
1120.00000,40.14096
1122.00000,71.41962
1124.00000,74.99696
1126.00000,41.05804
1128.00000,42.06151
1130.00000,67.97471
1132.00000,70.34206
1134.00000,61.17729
1136.00000,112.64355
1138.00000,124.27132
1140.00000,145.59984
1142.00000,218.96220
1144.00000,165.15996
1146.00000,152.37364
1148.00000,150.21991
1150.00000,108.37363
1152.00000,105.25958
1154.00000,123.16341
1156.00000,128.29779
1158.00000,100.02383
1160.00000,60.16802
1162.00000,53.19872
1164.00000,24.40348
1166.00000,30.55888
1168.00000,57.68995
1170.00000,22.29343
1172.00000,38.96445
1174.00000,56.92765
1176.00000,76.58701
1178.00000,122.99385
1180.00000,134.12404
1182.00000,145.02498
1184.00000,160.36555
1186.00000,165.38022
1188.00000,162.01613
1190.00000,162.62672
1192.00000,164.16792
1194.00000,158.33798
1196.00000,151.18625
1198.00000,161.25653
1200.00000,172.75952
1202.00000,153.04712
1204.00000,121.16240
1206.00000,131.59746
1208.00000,162.66287
1210.00000,108.84296
1212.00000,61.29279
1214.00000,94.30408
1216.00000,72.03599
1218.00000,78.80682
1220.00000,92.88461
1222.00000,73.83704
1224.00000,52.06694
1226.00000,58.51980
1228.00000,65.27497
1230.00000,65.79272
1232.00000,68.35111
1234.00000,63.80144
1236.00000,57.83838
1238.00000,45.64162
1240.00000,38.74508
1242.00000,51.72198
1244.00000,57.34631
1246.00000,48.13736
1248.00000,56.52269
1250.00000,65.39893
1252.00000,17.40743
1254.00000,38.91843
1256.00000,80.07832
1258.00000,72.11018
1260.00000,51.95411
1262.00000,72.80891
1264.00000,64.59023
1266.00000,53.24977
1268.00000,72.19772
1270.00000,72.30366
1272.00000,111.59214
1274.00000,118.06034
1276.00000,101.87926
1278.00000,134.27313
1280.00000,131.48943
1282.00000,140.12526
1284.00000,144.27028
1286.00000,131.29597
1288.00000,155.64259
1290.00000,159.88914
1292.00000,141.23483
1294.00000,139.04439
1296.00000,155.45700
1298.00000,133.60698
1300.00000,138.64268
1302.00000,172.71303
1304.00000,204.17310
1306.00000,227.08318
1308.00000,198.83012
1310.00000,207.00017
1312.00000,225.83905
1314.00000,193.80051
1316.00000,239.69905
1318.00000,253.60265
1320.00000,260.13116
1322.00000,284.58548
1324.00000,258.18472
1326.00000,311.66013
1328.00000,316.74756
1330.00000,314.44727
1332.00000,416.17172
1334.00000,428.56964
1336.00000,471.26904
1338.00000,510.87192
1340.00000,510.21039
1342.00000,537.47046
1344.00000,447.88675
1346.00000,385.25171
1348.00000,374.49570
1350.00000,298.12292
1352.00000,208.85942
1354.00000,192.39178
1356.00000,209.83815
1358.00000,190.87871
1360.00000,147.79007
1362.00000,139.97934
1364.00000,124.49956
1366.00000,118.68887
1368.00000,138.32817
1370.00000,86.36558
1372.00000,74.02188
1374.00000,89.83472
1376.00000,74.98446
1378.00000,58.28553
1380.00000,80.35279
1382.00000,51.45778
1384.00000,22.72848
1386.00000,65.10574
1388.00000,48.20298
1390.00000,36.42816
1392.00000,28.20648
1394.00000,25.93665
1396.00000,68.06665
1398.00000,71.96974
1400.00000,51.10768
1402.00000,37.88141
1404.00000,34.30669
1406.00000,34.56287
1408.00000,53.71939
1410.00000,55.49216
1412.00000,50.04630
1414.00000,78.36659
1416.00000,59.64214
1418.00000,80.98663
1420.00000,109.32867
1422.00000,72.95427
1424.00000,68.22729
1426.00000,94.09785
1428.00000,99.96032
1430.00000,98.11899
1432.00000,128.66537
1434.00000,119.19467
1436.00000,144.79211
1438.00000,195.05014
1440.00000,206.79097
1442.00000,216.61600
1444.00000,249.04562
1446.00000,277.21564
1448.00000,306.81488
1450.00000,362.39520
1452.00000,372.88733
1454.00000,328.82404
1456.00000,266.82770
1458.00000,229.51779
1460.00000,230.94817
1462.00000,231.52815
1464.00000,189.21217
1466.00000,155.19371
1468.00000,183.27002
1470.00000,150.64037
1472.00000,131.23213
1474.00000,133.26682
1476.00000,113.58965
1478.00000,108.89584
1480.00000,126.56504
1482.00000,122.34284
1484.00000,113.68432
1486.00000,134.11722
1488.00000,90.31168
1490.00000,70.23405
1492.00000,87.00243
1494.00000,84.06660
1496.00000,71.64390
1498.00000,95.87482
1500.00000,99.84283
1502.00000,61.91095
1504.00000,42.48298
1506.00000,67.91345
1508.00000,110.93389
1510.00000,99.48912
1512.00000,72.93307
1514.00000,156.30072
1516.00000,162.86488
1518.00000,193.67354
1520.00000,305.15717
1522.00000,416.74634
1524.00000,588.14111
1526.00000,718.62146
1528.00000,777.16595
1530.00000,758.60297
1532.00000,628.36096
1534.00000,522.79236
1536.00000,435.65216
1538.00000,325.78461
1540.00000,229.48811
1542.00000,212.22157
1544.00000,200.88596
1546.00000,180.31572
1548.00000,165.07646
1550.00000,126.12419
1552.00000,78.09375
1554.00000,86.61146
1556.00000,106.37697
1558.00000,60.16478
1560.00000,37.15105
1562.00000,30.03739
1564.00000,52.40065
1566.00000,83.45901
1568.00000,64.42233
1570.00000,89.26750
1572.00000,84.96563
1574.00000,80.21899
1576.00000,147.69354
1578.00000,148.92137
1580.00000,172.44731
1582.00000,206.68216
1584.00000,208.99857
1586.00000,223.85231
1588.00000,232.65576
1590.00000,216.98387
1592.00000,227.89281
1594.00000,267.45688
1596.00000,214.57553
1598.00000,272.48358
1600.00000,312.41293
1602.00000,267.95541
1604.00000,334.73450
1606.00000,282.45953
1608.00000,215.74614
1610.00000,223.38811
1612.00000,221.37906
1614.00000,166.67024
1616.00000,171.45067
1618.00000,145.34166
1620.00000,90.00629
1622.00000,158.19167
1624.00000,128.11841
1626.00000,97.39901
1628.00000,104.34142
1630.00000,83.10168
1632.00000,93.65948
1634.00000,70.67217
1636.00000,62.91555
1638.00000,79.88138
1640.00000,42.57145
1642.00000,44.35931
1644.00000,54.10899
1646.00000,63.92564
1648.00000,74.65989
1650.00000,22.01145
1652.00000,20.69360
1654.00000,47.13617
1656.00000,47.25645
1658.00000,46.99612
1660.00000,37.88387
1662.00000,37.67072
1664.00000,34.14205
1666.00000,11.69266
1668.00000,4.81170
1670.00000,22.03082
1672.00000,28.25406
1674.00000,20.05588
1676.00000,27.15359
1678.00000,25.82281
1680.00000,83.35754
1682.00000,104.52398
1684.00000,38.62342
1686.00000,86.03156
1688.00000,96.36317
1690.00000,65.44025
1692.00000,80.62578
1694.00000,116.23183
1696.00000,46.14043
1698.00000,67.90016
1700.00000,144.03227
1702.00000,117.45461
1704.00000,90.99636
1706.00000,107.47968
1708.00000,92.39429
1710.00000,78.67101
1712.00000,160.17467
1714.00000,177.92851
1716.00000,138.86893
1718.00000,137.16391
1720.00000,168.10832
1722.00000,135.04135
1724.00000,194.78142
1726.00000,182.61894
1728.00000,126.17535
1730.00000,210.82481
1732.00000,105.85379
1734.00000,92.55801
1736.00000,132.41692
1738.00000,65.80614
1740.00000,95.54255
1742.00000,74.18598
1744.00000,81.73444
1746.00000,116.40012
1748.00000,61.81775
1750.00000,78.56995
1752.00000,69.48692
1754.00000,63.62033
1756.00000,96.26672
1758.00000,52.53734
1760.00000,98.58121
1762.00000,96.65892
1764.00000,56.80246
1766.00000,133.03619
1768.00000,103.53104
1770.00000,89.20591
1772.00000,86.25790
1774.00000,48.22357
1776.00000,76.17619
1778.00000,81.38377
1780.00000,69.77954
1782.00000,77.29091
1784.00000,82.29068
1786.00000,53.74237
1788.00000,101.81146
1790.00000,122.50902
1792.00000,55.71310
1794.00000,76.52465
1796.00000,85.45794
1798.00000,99.56196
1800.00000,105.87782
1802.00000,53.73803
1804.00000,33.91514
1806.00000,51.54760
1808.00000,46.92178
1810.00000,10.68451
1812.00000,17.92883
1814.00000,71.57041
1816.00000,50.21227
1818.00000,5.60853
1820.00000,56.57986
1822.00000,55.22842
1824.00000,28.51137
1826.00000,45.19725
1828.00000,72.84887
1830.00000,35.00595
1832.00000,53.21135
1834.00000,64.51630
1836.00000,40.25859
1838.00000,51.57662
1840.00000,90.81121
1842.00000,63.69414
1844.00000,46.52074
1846.00000,71.60662
1848.00000,32.95972
1850.00000,57.10450
1852.00000,80.41593
1854.00000,40.24702
1856.00000,15.67298
1858.00000,99.41539
1860.00000,90.92269
1862.00000,46.14674
1864.00000,68.99077
1866.00000,77.87785
1868.00000,88.49968
1870.00000,95.53448
1872.00000,106.30064
1874.00000,114.71252
1876.00000,75.14088
1878.00000,84.49501
1880.00000,91.92745
1882.00000,98.24342
1884.00000,178.37657
1886.00000,93.76230
1888.00000,77.37039
1890.00000,155.22345
1892.00000,151.69873
1894.00000,171.43277
1896.00000,161.82854
1898.00000,112.44800
1900.00000,78.53881
1902.00000,98.07773
1904.00000,141.65807
1906.00000,229.51776
1908.00000,232.49556
1910.00000,113.28532
1912.00000,146.38197
1914.00000,151.33659
1916.00000,146.33571
1918.00000,167.34665
1920.00000,121.79503
1922.00000,114.86347
1924.00000,118.62843
1926.00000,116.11063
1928.00000,114.79588
1930.00000,80.65330
1932.00000,85.61839
1934.00000,151.75645
1936.00000,167.92332
1938.00000,86.83915
1940.00000,184.89207
1942.00000,158.07655
1944.00000,141.18108
1946.00000,283.97540
1948.00000,108.79434
1950.00000,158.52032
1952.00000,187.43343
1954.00000,76.58676
1956.00000,189.38190
1958.00000,134.61743
1960.00000,139.47229
1962.00000,187.47112
1964.00000,118.32903
1966.00000,140.40927
1968.00000,162.52431
1970.00000,100.44746
1972.00000,62.28776
1974.00000,133.47438
1976.00000,51.59349
1978.00000,71.30302
1980.00000,98.90865
1982.00000,0.38485
1984.00000,85.03163
1986.00000,40.12678
1988.00000,19.68903
1990.00000,87.93229
1992.00000,40.68668
1994.00000,69.86359
1996.00000,43.51200
1998.00000,10.76221
2000.00000,8.67053
2002.00000,11.06726
2004.00000,12.94303
2006.00000,12.17557
2008.00000,14.79165
2010.00000,18.93531
2012.00000,18.65747
2014.00000,23.58433
2016.00000,37.13060
2018.00000,26.11079
2020.00000,26.43820
2022.00000,35.53677
2024.00000,31.64029
2026.00000,37.59505
2028.00000,68.82853
2030.00000,65.94922
2032.00000,41.41559
2034.00000,68.74655
2036.00000,69.16272
2038.00000,46.64095
2040.00000,38.47870
2042.00000,49.58857
2044.00000,48.10807
2046.00000,36.83968
2048.00000,24.05847
2050.00000,21.86515
2052.00000,35.35395
2054.00000,31.19392
2056.00000,26.55628
2058.00000,32.06615
2060.00000,39.81651
2062.00000,57.99728
2064.00000,57.22692
2066.00000,48.03560
2068.00000,51.65243
2070.00000,52.10378
2072.00000,41.37382
2074.00000,49.52258
2076.00000,48.07897
2078.00000,8.57460
2080.00000,51.64147
2082.00000,67.49447
2084.00000,46.59286
2086.00000,60.24346
2088.00000,68.44755
2090.00000,60.52327
2092.00000,65.34407
2094.00000,74.35614
2096.00000,53.28448
2098.00000,59.99131
2100.00000,52.06190
2102.00000,28.87745
2104.00000,34.65265
2106.00000,47.09280
2108.00000,50.90226
2110.00000,42.91358
2112.00000,34.74109
2114.00000,43.79566
2116.00000,60.64211
2118.00000,50.24417
2120.00000,27.21356
2122.00000,38.38166
2124.00000,61.67816
2126.00000,36.35670
2128.00000,5.82374
2130.00000,29.22693
2132.00000,59.10753
2134.00000,56.58048
2136.00000,31.23063
2138.00000,31.46090
2140.00000,70.33820
2142.00000,54.47617
2144.00000,30.27962
2146.00000,40.18167
2148.00000,58.67368
2150.00000,52.68154
2152.00000,56.31958
2154.00000,66.95306
2156.00000,64.50603
2158.00000,53.53513
2160.00000,49.26130
2162.00000,68.33344
2164.00000,88.57783
2166.00000,84.58557
2168.00000,89.28355
2170.00000,91.38341
2172.00000,85.73206
2174.00000,84.25852
2176.00000,89.17433
2178.00000,70.58441
2180.00000,61.11894
2182.00000,82.30560
2184.00000,99.05441
2186.00000,75.59230
2188.00000,62.51700
2190.00000,79.02415
2192.00000,95.52041
2194.00000,94.93715
2196.00000,102.17284
2198.00000,102.39832
2200.00000,85.47913
2202.00000,75.20113
2204.00000,75.88412
2206.00000,77.39552
2208.00000,80.08178
2210.00000,83.57140
2212.00000,73.27240
2214.00000,82.21342
2216.00000,76.11535
2218.00000,46.79216
2220.00000,63.19869
2222.00000,95.22168
2224.00000,93.28446
2226.00000,71.08202
2228.00000,74.93594
2230.00000,84.55107
2232.00000,76.09938
2234.00000,62.26567
2236.00000,63.85721
2238.00000,74.39737
2240.00000,87.02549
2242.00000,96.60464
2244.00000,76.35838
2246.00000,30.76247
2248.00000,65.06836
2250.00000,62.92202
2252.00000,35.20021
2254.00000,70.74736
2256.00000,85.77180
2258.00000,52.43999
2260.00000,38.94972
2262.00000,57.98111
2264.00000,42.56684
2266.00000,55.58023
2268.00000,53.76653
2270.00000,54.37786
2272.00000,98.83092
2274.00000,85.29871
2276.00000,64.15775
2278.00000,84.47924
2280.00000,100.16964
2282.00000,41.93898
2284.00000,26.00065
2286.00000,56.10533
2288.00000,89.26863
2290.00000,101.99463
2292.00000,62.61880
2294.00000,43.57703
2296.00000,42.51408
2298.00000,31.74398
2300.00000,55.83644
2302.00000,50.62900
2304.00000,40.58098
2306.00000,54.36061
2308.00000,59.26898
2310.00000,58.95603
2312.00000,49.82170
2314.00000,54.77566
2316.00000,77.67153
2318.00000,56.28217
2320.00000,31.99948
2322.00000,59.67568
2324.00000,96.31483
2326.00000,66.95564
2328.00000,119.23123
2330.00000,137.97459
2332.00000,68.98323
2334.00000,40.46679
2336.00000,94.29223
2338.00000,93.51953
2340.00000,72.80064
2342.00000,88.35015
2344.00000,43.41047
2346.00000,67.04784
2348.00000,93.17621
2350.00000,66.19952
2352.00000,65.60690
2354.00000,90.84679
2356.00000,77.58784
2358.00000,60.28276
2360.00000,74.10771
2362.00000,36.05682
2364.00000,57.77108
2366.00000,69.79483
2368.00000,32.38511
2370.00000,62.28030
2372.00000,94.79841
2374.00000,77.15454
2376.00000,49.27385
2378.00000,58.80722
2380.00000,52.51889
2382.00000,63.59960
2384.00000,83.98079
2386.00000,87.65403
2388.00000,88.14357
2390.00000,81.96248
2392.00000,82.85290
2394.00000,82.94975
2396.00000,72.75983
2398.00000,100.65382
2400.00000,124.40916
2402.00000,112.76575
2404.00000,86.54061
2406.00000,83.10325
2408.00000,96.96976
2410.00000,77.15202
2412.00000,46.88443
2414.00000,70.41533
2416.00000,49.34809
2418.00000,39.98979
2420.00000,69.99950
2422.00000,81.69537
2424.00000,51.03910
2426.00000,48.62282
2428.00000,59.12906
2430.00000,60.15282
2432.00000,80.12375
2434.00000,52.31515
2436.00000,34.90195
2438.00000,62.72199
2440.00000,76.14499
2442.00000,36.65081
2444.00000,47.80779
2446.00000,76.81394
2448.00000,59.66475
2450.00000,56.16440
2452.00000,24.48451
2454.00000,25.45655
2456.00000,65.45410
2458.00000,64.24393
2460.00000,62.42993
2462.00000,72.60120
2464.00000,60.03460
2466.00000,30.55517
2468.00000,60.56828
2470.00000,64.53015
2472.00000,48.58019
2474.00000,60.25638
2476.00000,77.47372
2478.00000,51.22009
2480.00000,75.69008
2482.00000,88.03823
2484.00000,2.76168
2486.00000,28.88463
2488.00000,51.63667
2490.00000,35.75923
2492.00000,44.66811
2494.00000,76.92393
2496.00000,74.53842
2498.00000,46.26373
2500.00000,40.59228
2502.00000,64.80253
2504.00000,51.25428
2506.00000,47.80560
2508.00000,74.89512
2510.00000,84.32552
2512.00000,41.92110
2514.00000,33.18056
2516.00000,34.83519
2518.00000,34.54367
2520.00000,64.85753
2522.00000,32.84887
2524.00000,45.80133
2526.00000,81.41550
2528.00000,46.65055
2530.00000,51.41282
2532.00000,96.97668
2534.00000,70.35892
2536.00000,5.43819
2538.00000,74.81251
2540.00000,97.50066
2542.00000,72.05147
2544.00000,72.05514
2546.00000,91.04438
2548.00000,65.61635
2550.00000,62.01140
2552.00000,99.37860
2554.00000,109.51941
2556.00000,53.36512
2558.00000,79.24664
2560.00000,142.35207
2562.00000,136.87480
2564.00000,89.15233
2566.00000,129.00363
2568.00000,129.46750
2570.00000,88.13846
2572.00000,101.75082
2574.00000,122.10862
2576.00000,127.23971
2578.00000,84.64134
2580.00000,48.65280
2582.00000,102.65601
2584.00000,88.55717
2586.00000,45.76502
2588.00000,67.49937
2590.00000,123.66004
2592.00000,89.98967
2594.00000,94.68768
2596.00000,130.47540
2598.00000,106.56705
2600.00000,58.28997
2602.00000,104.45358
2604.00000,126.21377
2606.00000,70.72567
2608.00000,66.09810
2610.00000,150.33035
2612.00000,130.42258
2614.00000,61.66394
2616.00000,95.45398
2618.00000,133.13773
2620.00000,97.09776
2622.00000,101.38165
2624.00000,138.24748
2626.00000,71.55238
2628.00000,83.51596
2630.00000,133.64479
2632.00000,119.96458
2634.00000,77.37228
2636.00000,135.44633
2638.00000,111.61818
2640.00000,51.46741
2642.00000,70.78539
2644.00000,101.90640
2646.00000,84.03208
2648.00000,101.78131
2650.00000,144.99771
2652.00000,116.70383
2654.00000,75.10898
2656.00000,98.73215
2658.00000,129.45317
2660.00000,114.56544
2662.00000,123.43818
2664.00000,107.36718
2666.00000,72.37537
2668.00000,65.92899
2670.00000,110.43878
2672.00000,162.28189
2674.00000,117.55132
2676.00000,52.37880
2678.00000,84.04988
2680.00000,118.26271
2682.00000,71.58949
2684.00000,35.87879
2686.00000,56.02556
2688.00000,33.87586
2690.00000,-3.69190
2692.00000,32.43686
2694.00000,64.33100
2696.00000,2.43912
2698.00000,13.14987
2700.00000,18.19158
2702.00000,17.81874
2704.00000,46.17692
2706.00000,48.41099
2708.00000,32.10299
2710.00000,22.19602
2712.00000,23.41206
2714.00000,28.15848
2716.00000,46.68821
2718.00000,60.46199
2720.00000,37.36439
2722.00000,22.53240
2724.00000,104.82154
2726.00000,90.21821
2728.00000,43.62646
2730.00000,56.31305
2732.00000,59.74895
2734.00000,61.29327
2736.00000,122.52124
2738.00000,156.02167
2740.00000,82.70043
2742.00000,68.26152
2744.00000,124.38484
2746.00000,139.06219
2748.00000,83.72456
2750.00000,75.01328
2752.00000,123.53165
2754.00000,85.51231
2756.00000,61.25492
2758.00000,162.00064
2760.00000,45.21624
2762.00000,66.83096
2764.00000,146.18724
2766.00000,67.56283
2768.00000,74.44164
2770.00000,128.52560
2772.00000,72.53088
2774.00000,4.51063
2776.00000,96.28548
2778.00000,37.65276
2780.00000,-5.86686
2782.00000,64.78127
2784.00000,103.10571
2786.00000,17.20247
2788.00000,61.35677
2790.00000,110.06063
2792.00000,41.70831
2794.00000,26.39955
2796.00000,55.73969
2798.00000,58.01148
2800.00000,52.43859
2802.00000,81.64194
2804.00000,63.71475
2806.00000,-2.08405
2808.00000,41.14899
2810.00000,149.87465
2812.00000,65.41501
2814.00000,87.28725
2816.00000,123.72607
2818.00000,51.85641
2820.00000,1.14780
2822.00000,87.06396
2824.00000,67.62784
2826.00000,32.52211
2828.00000,116.63831
2830.00000,74.54311
2832.00000,37.54009
2834.00000,97.49573
2836.00000,142.33476
2838.00000,79.09032
2840.00000,164.30862
2842.00000,170.74440
2844.00000,110.42259
2846.00000,168.98303
2848.00000,176.59190
2850.00000,156.46774
2852.00000,208.33897
2854.00000,267.18713
2856.00000,202.31821
2858.00000,293.24203
2860.00000,330.54727
2862.00000,274.76053
2864.00000,315.30847
2866.00000,296.79022
2868.00000,300.24106
2870.00000,350.26224
2872.00000,377.22321
2874.00000,348.47629
2876.00000,305.50034
2878.00000,328.81705
2880.00000,362.55795
2882.00000,318.96735
2884.00000,368.12643
2886.00000,371.55771
2888.00000,338.27045
2890.00000,362.67404
2892.00000,358.94748
2894.00000,436.85455
2896.00000,471.67795
2898.00000,419.84949
2900.00000,448.71854
2902.00000,457.63034
2904.00000,444.29407
2906.00000,455.30832
2908.00000,479.08429
2910.00000,457.23511
2912.00000,500.73477
2914.00000,505.08481
2916.00000,428.41150
2918.00000,463.43060
2920.00000,477.98709
2922.00000,429.34256
2924.00000,432.12454
2926.00000,520.64319
2928.00000,452.38870
2930.00000,417.73856
2932.00000,446.32803
2934.00000,431.61215
2936.00000,429.20447
2938.00000,443.49835
2940.00000,407.05750
2942.00000,343.30112
2944.00000,343.82669
2946.00000,330.69894
2948.00000,337.20782
2950.00000,323.80682
2952.00000,257.72769
2954.00000,269.04587
2956.00000,285.17001
2958.00000,282.26053
2960.00000,273.83813
2962.00000,242.70599
2964.00000,203.69711
2966.00000,173.19438
2968.00000,177.34270
2970.00000,199.00987
2972.00000,150.43011
2974.00000,145.15260
2976.00000,182.81401
2978.00000,189.75191
2980.00000,169.65253
2982.00000,117.23737
2984.00000,110.89355
2986.00000,135.77328
2988.00000,104.52264
2990.00000,94.48244
2992.00000,62.84026
2994.00000,69.79708
2996.00000,134.71953
2998.00000,86.95116
3000.00000,95.23517
3002.00000,75.66669
3004.00000,-3.65476
3006.00000,28.24680
3008.00000,51.92619
3010.00000,48.72784
3012.00000,60.65125
3014.00000,74.03282
3016.00000,16.97886
3018.00000,-4.85745
3020.00000,-4.24508
3022.00000,3.94537
3024.00000,86.59473
3026.00000,93.33090
3028.00000,59.53583
3030.00000,82.99888
3032.00000,142.15936
3034.00000,110.25203
3036.00000,96.79519
3038.00000,121.11959
3040.00000,138.96025
3042.00000,197.50932
3044.00000,264.49963
3046.00000,199.70882
3048.00000,182.31581
3050.00000,426.10156
3052.00000,333.93832
3054.00000,379.04767
3056.00000,568.65656
3058.00000,478.65234
3060.00000,353.59604
3062.00000,401.03140
3064.00000,450.28424
3066.00000,386.37857
3068.00000,385.98984
3070.00000,410.81073
3072.00000,291.81302
3074.00000,198.45692
3076.00000,328.83624
3078.00000,290.14233
3080.00000,177.10080
3082.00000,133.01524
3084.00000,165.25635
3086.00000,203.85493
3088.00000,160.72437
3090.00000,133.42395
3092.00000,129.54050
3094.00000,59.18507
3096.00000,64.80045
3098.00000,175.47029
3100.00000,173.87605
3102.00000,-0.26264
3104.00000,10.38989
3106.00000,130.48206
3108.00000,141.21759
3110.00000,50.33792
3112.00000,72.87293
3114.00000,153.78276
3116.00000,59.90410
3118.00000,38.72784
3120.00000,267.29535
3122.00000,116.02310
3124.00000,84.54275
3126.00000,248.37001
3128.00000,234.83754
3130.00000,11.32323
3132.00000,159.70695
3134.00000,274.72559
3136.00000,120.02526
3138.00000,87.22052
3140.00000,261.54761
3142.00000,189.56277
3144.00000,120.26443
3146.00000,302.76044
3148.00000,201.74168
3150.00000,146.67377
3152.00000,204.86504
3154.00000,210.35864
3156.00000,158.57137
3158.00000,268.69604
3160.00000,224.38701
3162.00000,109.29067
3164.00000,223.28638
3166.00000,311.08228
3168.00000,192.32222
3170.00000,163.90721
3172.00000,271.74500
3174.00000,159.47900
3176.00000,199.06499
3178.00000,141.70238
3180.00000,69.39917
3182.00000,238.24715
3184.00000,138.37584
3186.00000,172.54135
3188.00000,161.06123
3190.00000,7.43741
3192.00000,259.81604
3194.00000,185.33476
3196.00000,-6.34457
3198.00000,72.91397
3200.00000,231.28419
