300.00000,23.73034
302.00000,30.47813
304.00000,35.47855
306.00000,49.00540
308.00000,60.53898
310.00000,51.13292
312.00000,26.83594
314.00000,25.63455
316.00000,29.83739
318.00000,23.84237
320.00000,16.46224
322.00000,19.54425
324.00000,37.75498
326.00000,44.33318
328.00000,41.26762
330.00000,54.03981
332.00000,42.93534
334.00000,48.25516
336.00000,65.54823
338.00000,66.31343
340.00000,77.84445
342.00000,73.71383
344.00000,61.82535
346.00000,53.52979
348.00000,46.31937
350.00000,63.00422
352.00000,68.47531
354.00000,44.80721
356.00000,21.77421
358.00000,32.62944
360.00000,35.00999
362.00000,26.93521
364.00000,27.87119
366.00000,34.24488
368.00000,23.88760
370.00000,15.19670
372.00000,25.97615
374.00000,37.07272
376.00000,15.48456
378.00000,12.25467
380.00000,24.44340
382.00000,29.66005
384.00000,30.38123
386.00000,34.21611
388.00000,43.74736
390.00000,41.96739
392.00000,30.23636
394.00000,41.63398
396.00000,46.69572
398.00000,32.72854
400.00000,17.89050
402.00000,20.34733
404.00000,26.62901
406.00000,41.03006
408.00000,47.93363
410.00000,35.38657
412.00000,25.04564
414.00000,23.96452
416.00000,24.15236
418.00000,26.68482
420.00000,35.88740
422.00000,33.82711
424.00000,28.72077
426.00000,31.05148
428.00000,43.25659
430.00000,58.48017
432.00000,56.19253
434.00000,51.57325
436.00000,67.76624
438.00000,98.33916
440.00000,103.30853
442.00000,74.36462
444.00000,47.45881
446.00000,57.27959
448.00000,93.26886
450.00000,115.93132
452.00000,102.22507
454.00000,72.24844
456.00000,65.19916
458.00000,84.06706
460.00000,97.63738
462.00000,82.42611
464.00000,58.25037
466.00000,61.43118
468.00000,47.89883
470.00000,34.24936
472.00000,45.58710
474.00000,77.55973
476.00000,131.66252
478.00000,250.81424
480.00000,397.92151
482.00000,492.30612
484.00000,495.55591
486.00000,421.45776
488.00000,314.84570
490.00000,222.85898
492.00000,167.99313
494.00000,136.90961
496.00000,112.34573
498.00000,78.27790
500.00000,44.25495
502.00000,36.14478
504.00000,31.17398
506.00000,25.16692
508.00000,22.53344
510.00000,24.11070
512.00000,29.82203
514.00000,34.51511
516.00000,35.39238
518.00000,32.01901
520.00000,25.67659
522.00000,22.41716
524.00000,24.75964
526.00000,27.62442
528.00000,27.97686
530.00000,31.67927
532.00000,25.73913
534.00000,19.24639
536.00000,26.84208
538.00000,41.92759
540.00000,44.01191
542.00000,30.97744
544.00000,26.92167
546.00000,44.09156
548.00000,52.32097
550.00000,56.57476
552.00000,62.00042
554.00000,62.73810
556.00000,51.94478
558.00000,34.95080
560.00000,16.48296
562.00000,12.85345
564.00000,29.05927
566.00000,36.27847
568.00000,32.87415
570.00000,23.59863
572.00000,30.93403
574.00000,60.31656
576.00000,36.51140
578.00000,36.83970
580.00000,75.37187
582.00000,91.43310
584.00000,93.87036
586.00000,115.48838
588.00000,145.76682
590.00000,165.47256
592.00000,175.44286
594.00000,171.99683
596.00000,165.65266
598.00000,157.32597
600.00000,139.25545
602.00000,113.48416
604.00000,92.05365
606.00000,85.05238
608.00000,88.05593
610.00000,89.96299
612.00000,96.52660
614.00000,102.27793
616.00000,103.60209
618.00000,96.91734
620.00000,79.70602
622.00000,84.08664
624.00000,94.91676
626.00000,87.13487
628.00000,66.06512
630.00000,53.43881
632.00000,71.64362
634.00000,90.14577
636.00000,75.85368
638.00000,55.90260
640.00000,46.17509
642.00000,55.26028
644.00000,61.12595
646.00000,36.82383
648.00000,15.72456
650.00000,7.17302
652.00000,11.05866
654.00000,18.88881
656.00000,15.23792
658.00000,16.07245
660.00000,23.20355
662.00000,22.00082
664.00000,11.66236
666.00000,26.29360
668.00000,48.89136
670.00000,71.51367
672.00000,131.80249
674.00000,279.90848
676.00000,478.81592
678.00000,669.64453
680.00000,768.31567
682.00000,708.63391
684.00000,533.74603
686.00000,344.86969
688.00000,204.54912
690.00000,129.63168
692.00000,112.63824
694.00000,105.27464
696.00000,108.34411
698.00000,115.52721
700.00000,99.61411
702.00000,72.46149
704.00000,60.04166
706.00000,47.18471
708.00000,31.22980
710.00000,49.07317
712.00000,60.44750
714.00000,60.22389
716.00000,61.08876
718.00000,63.49136
720.00000,60.08670
722.00000,53.26926
724.00000,48.71709
726.00000,44.29308
728.00000,34.58453
730.00000,35.67736
732.00000,41.61169
734.00000,60.24695
736.00000,110.22125
738.00000,193.44264
740.00000,380.89877
742.00000,718.13159
744.00000,1116.36536
746.00000,1366.59656
748.00000,1346.69128
750.00000,1069.24805
752.00000,683.19739
754.00000,368.10077
756.00000,185.92079
758.00000,113.82618
760.00000,84.33092
762.00000,59.36135
764.00000,56.77585
766.00000,74.00948
768.00000,85.73132
770.00000,104.72599
772.00000,142.50500
774.00000,144.82111
776.00000,152.87769
778.00000,161.37749
780.00000,150.29004
782.00000,138.63416
784.00000,121.71046
786.00000,88.94265
788.00000,52.14235
790.00000,33.62720
792.00000,31.12841
794.00000,25.14030
796.00000,25.25858
798.00000,33.77032
800.00000,30.32732
802.00000,30.58384
804.00000,25.42115
806.00000,26.54888
808.00000,41.13065
810.00000,28.02190
812.00000,17.49133
814.00000,9.33140
816.00000,7.87726
818.00000,36.54432
820.00000,50.88817
822.00000,50.59197
824.00000,54.68441
826.00000,74.07887
828.00000,105.29790
830.00000,123.32323
832.00000,136.69518
834.00000,148.79596
836.00000,136.26836
838.00000,106.21522
840.00000,107.69148
842.00000,124.24389
844.00000,121.05169
846.00000,133.63472
848.00000,127.80252
850.00000,115.61380
852.00000,111.62439
854.00000,98.66425
856.00000,88.76832
858.00000,76.66644
860.00000,68.55352
862.00000,67.82397
864.00000,56.46334
866.00000,60.52177
868.00000,58.17662
870.00000,50.10514
872.00000,71.63588
874.00000,81.00401
876.00000,62.29570
878.00000,46.96726
880.00000,41.45821
882.00000,5.13007
884.00000,29.37268
886.00000,46.51956
888.00000,18.39306
890.00000,24.52115
892.00000,41.09885
894.00000,22.23870
896.00000,12.87937
898.00000,49.10393
900.00000,53.98346
902.00000,34.68764
904.00000,17.11305
906.00000,14.20024
908.00000,21.41699
910.00000,24.44551
912.00000,25.21014
914.00000,16.26031
916.00000,2.49846
918.00000,10.67656
920.00000,11.86782
922.00000,30.25202
924.00000,51.03721
926.00000,29.90705
928.00000,27.68152
930.00000,23.68390
932.00000,15.38908
934.00000,24.61520
936.00000,40.66829
938.00000,30.26767
940.00000,18.86609
942.00000,33.84153
944.00000,66.69792
946.00000,108.55795
948.00000,181.28796
950.00000,272.64734
952.00000,342.24258
954.00000,358.86380
956.00000,304.55878
958.00000,217.27177
960.00000,151.83716
962.00000,116.50975
964.00000,61.21262
966.00000,39.58376
968.00000,42.39756
970.00000,32.91285
972.00000,31.23270
974.00000,28.93656
976.00000,31.54723
978.00000,31.15395
980.00000,21.69454
982.00000,38.44927
984.00000,47.36938
986.00000,43.71384
988.00000,45.32790
990.00000,48.10465
992.00000,48.78539
994.00000,53.93841
996.00000,77.79118
998.00000,119.85445
1000.00000,150.94479
1002.00000,181.72455
1004.00000,201.24661
1006.00000,197.47057
1008.00000,184.21460
1010.00000,156.24815
1012.00000,122.50918
1014.00000,89.48817
1016.00000,57.76923
1018.00000,37.60421
1020.00000,37.09494
1022.00000,44.03859
1024.00000,45.53580
1026.00000,46.40402
1028.00000,52.28192
1030.00000,56.00067
1032.00000,56.63755
1034.00000,57.19854
1036.00000,52.04692
1038.00000,60.09759
1040.00000,64.74024
1042.00000,50.57969
1044.00000,39.12337
1046.00000,39.56768
1048.00000,30.04362
1050.00000,10.15463
1052.00000,3.21132
1054.00000,12.87897
1056.00000,22.78321
1058.00000,24.48607
1060.00000,20.96575
1062.00000,16.88519
1064.00000,12.47970
1066.00000,22.44598
1068.00000,26.95177
1070.00000,7.66990
1072.00000,6.81765
1074.00000,14.66800
1076.00000,19.63085
1078.00000,18.05202
1080.00000,12.97280
1082.00000,24.01563
1084.00000,33.27110
1086.00000,39.07412
1088.00000,49.97387
1090.00000,45.45087
1092.00000,30.45743
1094.00000,24.22379
1096.00000,38.18248
1098.00000,65.88531
1100.00000,94.81274
1102.00000,130.02376
1104.00000,196.25737
1106.00000,286.92206
1108.00000,339.17505
1110.00000,359.24503
1112.00000,306.33057
1114.00000,205.83893
1116.00000,153.65250
1118.00000,105.57957
1120.00000,89.75080
1122.00000,97.08876
1124.00000,94.87234
1126.00000,112.31268
1128.00000,148.03107
1130.00000,185.81876
1132.00000,210.15877
1134.00000,239.17749
1136.00000,344.72595
1138.00000,481.69775
1140.00000,651.28589
1142.00000,813.58069
1144.00000,797.48376
1146.00000,692.43689
1148.00000,531.47321
1150.00000,351.67465
1152.00000,236.82510
1154.00000,173.85985
1156.00000,149.76147
1158.00000,136.21277
1160.00000,110.46562
1162.00000,82.76180
1164.00000,51.32222
1166.00000,49.97140
1168.00000,60.84610
1170.00000,32.39136
1172.00000,22.58239
1174.00000,39.73957
1176.00000,84.93069
1178.00000,147.25839
1180.00000,195.53798
1182.00000,265.41068
1184.00000,332.37885
1186.00000,361.11765
1188.00000,354.89105
1190.00000,336.22668
1192.00000,356.60168
1194.00000,384.66461
1196.00000,370.06369
1198.00000,339.78940
1200.00000,309.12427
1202.00000,294.48492
1204.00000,298.69635
1206.00000,313.90927
1208.00000,342.31686
1210.00000,356.86844
1212.00000,364.63657
1214.00000,387.22513
1216.00000,403.36432
1218.00000,358.44098
1220.00000,311.53983
1222.00000,276.27960
1224.00000,201.12195
1226.00000,131.97292
1228.00000,80.25743
1230.00000,54.53902
1232.00000,56.50345
1234.00000,62.43260
1236.00000,51.84580
1238.00000,42.08693
1240.00000,37.67179
1242.00000,29.15100
1244.00000,34.06866
1246.00000,16.91142
1248.00000,-3.47578
1250.00000,1.01327
1252.00000,3.76509
1254.00000,1.88252
1256.00000,-1.02090
1258.00000,3.04924
1260.00000,11.00382
1262.00000,0.97077
1264.00000,9.68872
1266.00000,14.96277
1268.00000,3.06706
1270.00000,16.86215
1272.00000,10.28548
1274.00000,24.31664
1276.00000,47.23874
1278.00000,30.84973
1280.00000,41.19279
1282.00000,64.87012
1284.00000,64.65024
1286.00000,53.05709
1288.00000,78.91293
1290.00000,108.58622
1292.00000,123.92130
1294.00000,149.62836
1296.00000,210.00992
1298.00000,271.92969
1300.00000,299.45648
1302.00000,377.65240
1304.00000,511.70587
1306.00000,547.33563
1308.00000,504.20563
1310.00000,472.81308
1312.00000,428.61877
1314.00000,334.24371
1316.00000,320.25903
1318.00000,325.44022
1320.00000,332.80130
1322.00000,367.28366
1324.00000,408.48114
1326.00000,423.48636
1328.00000,498.51727
1330.00000,594.01965
1332.00000,681.47742
1334.00000,974.14655
1336.00000,1324.19849
1338.00000,1693.05518
1340.00000,2017.90454
1342.00000,2088.04834
1344.00000,1874.44324
1346.00000,1444.86865
1348.00000,975.78394
1350.00000,648.35327
1352.00000,480.91949
1354.00000,351.38391
1356.00000,239.67851
1358.00000,185.73448
1360.00000,180.97984
1362.00000,172.17271
1364.00000,162.88638
1366.00000,158.87794
1368.00000,150.88181
1370.00000,140.09230
1372.00000,128.54008
1374.00000,131.58131
1376.00000,114.02652
1378.00000,44.06762
1380.00000,51.25385
1382.00000,45.07207
1384.00000,4.60014
1386.00000,-0.00913
1388.00000,11.41377
1390.00000,21.16446
1392.00000,12.55291
1394.00000,8.34415
1396.00000,30.73166
1398.00000,6.77904
1400.00000,38.23337
1402.00000,61.39508
1404.00000,7.34713
1406.00000,46.75497
1408.00000,30.84354
1410.00000,41.78265
1412.00000,100.20103
1414.00000,57.16636
1416.00000,26.76386
1418.00000,21.65615
1420.00000,33.34850
1422.00000,53.89315
1424.00000,57.13566
1426.00000,102.09878
1428.00000,136.85147
1430.00000,125.68141
1432.00000,118.68744
1434.00000,125.62981
1436.00000,147.66399
1438.00000,188.36856
1440.00000,239.54903
1442.00000,288.81686
1444.00000,389.96445
1446.00000,579.64984
1448.00000,813.64966
1450.00000,973.82916
1452.00000,954.17596
1454.00000,767.39056
1456.00000,538.31213
1458.00000,367.67056
1460.00000,249.68552
1462.00000,221.94540
1464.00000,167.57921
1466.00000,92.03883
1468.00000,110.65926
1470.00000,100.89303
1472.00000,111.66663
1474.00000,112.37583
1476.00000,67.05112
1478.00000,70.89610
1480.00000,92.40987
1482.00000,77.65345
1484.00000,48.41975
1486.00000,55.90643
1488.00000,54.14632
1490.00000,33.16255
1492.00000,23.34972
1494.00000,29.33024
1496.00000,17.27466
1498.00000,30.03515
1500.00000,29.24884
1502.00000,29.13044
1504.00000,80.26218
1506.00000,107.11282
1508.00000,148.64255
1510.00000,175.06161
1512.00000,195.73738
1514.00000,327.55249
1516.00000,485.79645
1518.00000,716.98206
1520.00000,1076.55908
1522.00000,1620.63721
1524.00000,2504.32104
1526.00000,3543.95532
1528.00000,4319.58447
1530.00000,4431.69238
1532.00000,3806.39697
1534.00000,2900.15942
1536.00000,2090.04199
1538.00000,1525.78992
1540.00000,1161.55957
1542.00000,874.15344
1544.00000,711.52899
1546.00000,564.88727
1548.00000,403.13266
1550.00000,388.92981
1552.00000,348.99261
1554.00000,266.32388
1556.00000,210.32399
1558.00000,191.26678
1560.00000,145.19594
1562.00000,64.11171
1564.00000,33.64898
1566.00000,55.97636
1568.00000,21.76994
1570.00000,18.58073
1572.00000,67.20890
1574.00000,76.73284
1576.00000,22.58582
1578.00000,66.76768
1580.00000,101.64706
1582.00000,67.49055
1584.00000,37.72466
1586.00000,86.57030
1588.00000,116.31711
1590.00000,72.27319
1592.00000,57.16187
1594.00000,121.38034
1596.00000,82.18284
1598.00000,104.67247
1600.00000,132.90999
1602.00000,97.69180
1604.00000,105.15187
1606.00000,78.18459
1608.00000,129.79883
1610.00000,186.75407
1612.00000,125.67201
1614.00000,127.34776
1616.00000,81.67953
1618.00000,43.66042
1620.00000,76.14149
1622.00000,79.98162
1624.00000,46.45047
1626.00000,63.53212
1628.00000,83.00121
1630.00000,45.03308
1632.00000,78.10638
1634.00000,82.63569
1636.00000,65.13311
1638.00000,73.65610
1640.00000,81.16538
1642.00000,72.22209
1644.00000,70.41666
1646.00000,85.63334
1648.00000,87.16587
1650.00000,43.11105
1652.00000,26.28011
1654.00000,49.03769
1656.00000,48.52896
1658.00000,1.85570
1660.00000,28.11414
1662.00000,38.51847
1664.00000,18.06684
1666.00000,31.19057
1668.00000,42.95660
1670.00000,22.67069
1672.00000,-6.25887
1674.00000,6.36248
1676.00000,58.23568
1678.00000,49.33825
1680.00000,42.21662
1682.00000,63.44512
1684.00000,63.88513
1686.00000,38.81299
1688.00000,74.68234
1690.00000,70.45124
1692.00000,21.35010
1694.00000,58.33453
1696.00000,64.89214
1698.00000,27.98435
1700.00000,-7.82019
1702.00000,14.84292
1704.00000,102.92889
1706.00000,61.22853
1708.00000,19.14721
1710.00000,48.98774
1712.00000,29.36638
1714.00000,46.93275
1716.00000,68.79869
1718.00000,64.51092
1720.00000,62.10546
1722.00000,75.83452
1724.00000,21.06085
1726.00000,50.96276
1728.00000,107.11404
1730.00000,4.34684
1732.00000,61.73895
1734.00000,129.70152
1736.00000,69.55740
1738.00000,0.59599
1740.00000,75.41502
1742.00000,41.25634
1744.00000,19.40275
1746.00000,88.71008
1748.00000,88.92035
1750.00000,22.31798
1752.00000,-7.22980
1754.00000,15.32159
1756.00000,35.38358
1758.00000,35.32293
1760.00000,38.78164
1762.00000,27.04820
1764.00000,21.60369
1766.00000,52.48287
1768.00000,38.80748
1770.00000,6.91970
1772.00000,28.53728
1774.00000,70.97498
1776.00000,29.84225
1778.00000,61.16900
1780.00000,121.58952
1782.00000,124.16921
1784.00000,85.13840
1786.00000,71.23415
1788.00000,163.18491
1790.00000,137.01622
1792.00000,17.41842
1794.00000,190.60316
1796.00000,156.27428
1798.00000,96.09229
1800.00000,122.46641
1802.00000,78.49094
1804.00000,151.63889
1806.00000,98.90981
1808.00000,67.97808
1810.00000,175.84711
1812.00000,140.73798
1814.00000,151.58337
1816.00000,121.15948
1818.00000,99.89619
1820.00000,194.33293
1822.00000,125.09884
1824.00000,121.25494
1826.00000,124.19352
1828.00000,75.08295
1830.00000,153.81903
1832.00000,76.83273
1834.00000,94.96874
1836.00000,144.06107
1838.00000,12.92578
1840.00000,124.54737
1842.00000,72.00661
1844.00000,22.58626
1846.00000,154.68640
1848.00000,106.52497
1850.00000,37.67267
1852.00000,50.61135
1854.00000,70.73741
1856.00000,43.87384
1858.00000,85.88572
1860.00000,82.28390
1862.00000,98.43098
1864.00000,146.02202
1866.00000,96.27543
1868.00000,154.77383
1870.00000,142.23816
1872.00000,46.12358
1874.00000,39.40012
1876.00000,58.10653
1878.00000,121.91879
1880.00000,137.34703
1882.00000,89.74021
1884.00000,89.11660
1886.00000,38.11913
1888.00000,89.10492
1890.00000,138.98639
1892.00000,51.59684
1894.00000,104.67279
1896.00000,68.84360
1898.00000,24.93096
1900.00000,82.08295
1902.00000,89.87085
1904.00000,55.13662
1906.00000,87.56954
1908.00000,92.92791
1910.00000,13.65066
1912.00000,88.14496
1914.00000,76.10465
1916.00000,29.61333
1918.00000,75.33685
1920.00000,125.11542
1922.00000,112.19900
1924.00000,88.46688
1926.00000,80.46934
1928.00000,88.70358
1930.00000,128.85448
1932.00000,80.76535
1934.00000,61.71435
1936.00000,83.19193
1938.00000,11.42422
1940.00000,69.85944
1942.00000,110.81634
1944.00000,50.17437
1946.00000,11.04496
1948.00000,72.40322
1950.00000,50.92733
1952.00000,36.67384
1954.00000,75.67126
1956.00000,69.62534
1958.00000,164.12364
1960.00000,146.31773
1962.00000,73.05040
1964.00000,121.18227
1966.00000,140.57591
1968.00000,98.31368
1970.00000,110.76382
1972.00000,148.25514
1974.00000,101.92367
1976.00000,160.59906
1978.00000,113.69250
1980.00000,75.75095
1982.00000,142.95380
1984.00000,12.62667
1986.00000,149.23662
1988.00000,177.65276
1990.00000,17.74659
1992.00000,122.31450
1994.00000,107.29198
1996.00000,67.89360
1998.00000,78.10906
2000.00000,20.97575
2002.00000,17.12920
2004.00000,12.00316
2006.00000,13.78977
2008.00000,20.72096
2010.00000,31.43560
2012.00000,30.61961
2014.00000,27.55213
2016.00000,40.03815
2018.00000,41.86650
2020.00000,42.08693
2022.00000,48.76167
2024.00000,54.15706
2026.00000,47.66796
2028.00000,35.87133
2030.00000,36.78076
2032.00000,48.11284
2034.00000,46.71455
2036.00000,31.86745
2038.00000,29.97339
2040.00000,34.17098
2042.00000,28.11450
2044.00000,34.57079
2046.00000,43.45201
2048.00000,33.69678
2050.00000,19.73248
2052.00000,33.32437
2054.00000,29.26733
2056.00000,16.12702
2058.00000,11.33084
2060.00000,11.23847
2062.00000,13.73734
2064.00000,27.15143
2066.00000,32.18148
2068.00000,23.03871
2070.00000,30.62596
2072.00000,38.19738
2074.00000,42.10124
2076.00000,49.57519
2078.00000,58.67405
2080.00000,55.08051
2082.00000,55.27135
2084.00000,67.48217
2086.00000,89.75852
2088.00000,115.91131
2090.00000,95.71679
2092.00000,56.90717
2094.00000,49.96275
2096.00000,61.12028
2098.00000,21.73843
2100.00000,10.90528
2102.00000,33.74891
2104.00000,22.48677
2106.00000,8.28978
2108.00000,23.79049
2110.00000,39.08313
2112.00000,28.65271
2114.00000,25.10167
2116.00000,46.47539
2118.00000,43.36757
2120.00000,22.91188
2122.00000,38.51923
2124.00000,53.64246
2126.00000,35.35246
2128.00000,20.64648
2130.00000,36.30446
2132.00000,34.76464
2134.00000,27.68804
2136.00000,34.11887
2138.00000,37.59481
2140.00000,21.51852
2142.00000,39.14471
2144.00000,37.92626
2146.00000,17.27007
2148.00000,23.15576
2150.00000,35.54978
2152.00000,24.14997
2154.00000,24.54739
2156.00000,46.62806
2158.00000,42.48551
2160.00000,41.05497
2162.00000,43.60689
2164.00000,36.93737
2166.00000,24.30415
2168.00000,27.27886
2170.00000,35.56975
2172.00000,31.72496
2174.00000,23.45278
2176.00000,32.75904
2178.00000,26.12933
2180.00000,26.10260
2182.00000,39.36371
2184.00000,31.77561
2186.00000,6.77483
2188.00000,5.41223
2190.00000,27.39171
2192.00000,32.95796
2194.00000,9.72111
2196.00000,25.96222
2198.00000,52.40366
2200.00000,57.04263
2202.00000,70.96503
2204.00000,82.41279
2206.00000,62.69137
2208.00000,38.34319
2210.00000,51.15205
2212.00000,72.52589
2214.00000,76.08287
2216.00000,65.45395
2218.00000,45.68794
2220.00000,14.83904
2222.00000,10.97204
2224.00000,24.64310
2226.00000,35.93130
2228.00000,38.83415
2230.00000,27.79580
2232.00000,19.58733
2234.00000,24.58420
2236.00000,27.90485
2238.00000,10.42948
2240.00000,14.15164
2242.00000,25.72219
2244.00000,20.99064
2246.00000,21.15590
2248.00000,61.24420
2250.00000,45.24953
2252.00000,20.09327
2254.00000,62.08814
2256.00000,51.70690
2258.00000,25.66957
2260.00000,30.41755
2262.00000,55.74014
2264.00000,62.04026
2266.00000,54.19479
2268.00000,69.77208
2270.00000,106.66016
2272.00000,127.19952
2274.00000,125.91933
2276.00000,132.32002
2278.00000,128.64172
2280.00000,97.37627
2282.00000,75.40067
2284.00000,82.15574
2286.00000,81.38581
2288.00000,63.69776
2290.00000,59.44453
2292.00000,60.48040
2294.00000,53.97960
2296.00000,61.76381
2298.00000,81.31647
2300.00000,62.07340
2302.00000,77.87167
2304.00000,79.72300
2306.00000,42.11660
2308.00000,35.61952
2310.00000,34.65383
2312.00000,50.41045
2314.00000,66.00349
2316.00000,49.14687
2318.00000,28.47074
2320.00000,51.27267
2322.00000,68.08533
2324.00000,35.61126
2326.00000,14.18669
2328.00000,61.74335
2330.00000,72.50323
2332.00000,42.09357
2334.00000,59.26051
2336.00000,52.25383
2338.00000,46.60362
2340.00000,30.93994
2342.00000,10.88068
2344.00000,47.51637
2346.00000,21.94811
2348.00000,2.46925
2350.00000,32.34897
2352.00000,26.59536
2354.00000,2.14469
2356.00000,13.00085
2358.00000,39.63738
2360.00000,41.39852
2362.00000,46.31234
2364.00000,35.21196
2366.00000,25.99116
2368.00000,36.89750
2370.00000,47.19842
2372.00000,42.69440
2374.00000,41.15419
2376.00000,30.26635
2378.00000,11.11700
2380.00000,53.26874
2382.00000,51.54989
2384.00000,34.85915
2386.00000,44.65723
2388.00000,5.91226
2390.00000,8.92611
2392.00000,35.82595
2394.00000,29.29942
2396.00000,0.79239
2398.00000,16.42892
2400.00000,24.78284
2402.00000,25.07698
2404.00000,41.49482
2406.00000,36.69670
2408.00000,42.08357
2410.00000,64.25060
2412.00000,70.30187
2414.00000,50.79898
2416.00000,78.05177
2418.00000,63.91645
2420.00000,59.17852
2422.00000,118.73854
2424.00000,52.51092
2426.00000,52.61866
2428.00000,91.74094
2430.00000,69.07621
2432.00000,53.47313
2434.00000,40.66113
2436.00000,39.91549
2438.00000,43.96581
2440.00000,32.06342
2442.00000,20.35406
2444.00000,24.20454
2446.00000,16.91869
2448.00000,1.72464
2450.00000,33.45249
2452.00000,38.39465
2454.00000,21.19505
2456.00000,20.94194
2458.00000,38.45465
2460.00000,46.26387
2462.00000,27.08934
2464.00000,16.22219
2466.00000,30.63686
2468.00000,14.66238
2470.00000,19.25589
2472.00000,56.11514
2474.00000,67.70303
2476.00000,20.77667
2478.00000,24.00562
2480.00000,29.42337
2482.00000,38.07397
2484.00000,82.22916
2486.00000,55.06425
2488.00000,19.75652
2490.00000,23.08433
2492.00000,39.97424
2494.00000,34.16774
2496.00000,29.78991
2498.00000,25.01181
2500.00000,22.09756
2502.00000,30.00957
2504.00000,23.24332
2506.00000,12.27046
2508.00000,31.24335
2510.00000,70.83411
2512.00000,61.67202
2514.00000,25.22723
2516.00000,37.38382
2518.00000,67.48636
2520.00000,24.56514
2522.00000,24.03854
2524.00000,44.87207
2526.00000,42.59972
2528.00000,26.39039
2530.00000,21.72427
2532.00000,18.61182
2534.00000,11.98813
2536.00000,8.78349
2538.00000,16.21661
2540.00000,29.09273
2542.00000,11.23473
2544.00000,20.22250
2546.00000,84.44862
2548.00000,22.30406
2550.00000,17.42262
2552.00000,44.06969
2554.00000,-1.37344
2556.00000,6.30460
2558.00000,77.01251
2560.00000,59.22527
2562.00000,2.19198
2564.00000,73.62717
2566.00000,47.54504
2568.00000,-4.91259
2570.00000,11.74303
2572.00000,46.49775
2574.00000,14.15387
2576.00000,55.58489
2578.00000,97.17338
2580.00000,69.92173
2582.00000,69.82074
2584.00000,62.42091
2586.00000,63.25322
2588.00000,87.46803
2590.00000,103.14872
2592.00000,64.94926
2594.00000,17.75179
2596.00000,33.80507
2598.00000,90.07568
2600.00000,78.74928
2602.00000,54.42220
2604.00000,53.30812
2606.00000,74.15736
2608.00000,96.95459
2610.00000,93.52708
2612.00000,79.70853
2614.00000,57.86221
2616.00000,39.05194
2618.00000,62.05067
2620.00000,80.25321
2622.00000,51.46411
2624.00000,55.10073
2626.00000,140.54970
2628.00000,39.97372
2630.00000,27.69656
2632.00000,102.87729
2634.00000,37.24458
2636.00000,-6.29616
2638.00000,43.39165
2640.00000,68.09245
2642.00000,32.62765
2644.00000,73.17248
2646.00000,119.47799
2648.00000,107.78291
2650.00000,94.88896
2652.00000,120.11444
2654.00000,48.23053
2656.00000,54.32010
2658.00000,105.22278
2660.00000,84.07955
2662.00000,77.03725
2664.00000,98.71378
2666.00000,80.83875
2668.00000,57.73356
2670.00000,110.97566
2672.00000,108.59331
2674.00000,121.49811
2676.00000,128.80482
2678.00000,65.70886
2680.00000,37.92314
2682.00000,99.61803
2684.00000,119.69447
2686.00000,63.43635
2688.00000,79.95964
2690.00000,128.66864
2692.00000,80.48521
2694.00000,25.44630
2696.00000,88.18378
2698.00000,81.46035
2700.00000,82.10458
2702.00000,68.39761
2704.00000,21.24600
2706.00000,48.64869
2708.00000,76.08172
2710.00000,92.04120
2712.00000,74.09731
2714.00000,8.02309
2716.00000,20.87435
2718.00000,113.81257
2720.00000,123.45580
2722.00000,41.85191
2724.00000,118.23581
2726.00000,126.95391
2728.00000,56.55446
2730.00000,86.89096
2732.00000,222.04547
2734.00000,110.28585
2736.00000,63.34853
2738.00000,144.80641
2740.00000,112.66783
2742.00000,42.79973
2744.00000,88.84353
2746.00000,118.98869
2748.00000,61.36968
2750.00000,85.29657
2752.00000,101.97209
2754.00000,95.79195
2756.00000,97.15173
2758.00000,103.47014
2760.00000,87.51356
2762.00000,113.71966
2764.00000,148.70799
2766.00000,116.78353
2768.00000,50.28346
2770.00000,69.03075
2772.00000,100.32433
2774.00000,74.11848
2776.00000,50.68487
2778.00000,77.77344
2780.00000,59.53300
2782.00000,43.86187
2784.00000,94.15005
2786.00000,74.69746
2788.00000,42.75465
2790.00000,71.16066
2792.00000,109.22990
2794.00000,60.26661
2796.00000,31.60398
2798.00000,37.39403
2800.00000,39.03744
2802.00000,18.95152
2804.00000,2.27150
2806.00000,34.03880
2808.00000,36.47916
2810.00000,9.54657
2812.00000,85.39057
2814.00000,104.95679
2816.00000,96.92097
2818.00000,78.32303
2820.00000,30.74473
2822.00000,93.78920
2824.00000,46.24730
2826.00000,32.04024
2828.00000,169.88542
2830.00000,103.59876
2832.00000,92.92063
2834.00000,129.79817
2836.00000,119.35318
2838.00000,124.02124
2840.00000,146.29106
2842.00000,124.13483
2844.00000,101.62977
2846.00000,117.46458
2848.00000,69.27251
2850.00000,122.96978
2852.00000,169.18768
2854.00000,117.51118
2856.00000,127.88473
2858.00000,151.61163
2860.00000,160.61601
2862.00000,157.70981
2864.00000,149.07947
2866.00000,149.43626
2868.00000,188.44147
2870.00000,173.94310
2872.00000,113.61794
2874.00000,184.54468
2876.00000,190.39133
2878.00000,131.24527
2880.00000,95.38818
2882.00000,95.59753
2884.00000,113.28561
2886.00000,103.21719
2888.00000,76.54967
2890.00000,77.53237
2892.00000,101.36150
2894.00000,88.55015
2896.00000,64.34213
2898.00000,68.11442
2900.00000,70.93311
2902.00000,31.51868
2904.00000,72.79032
2906.00000,118.79222
2908.00000,46.03654
2910.00000,61.05302
2912.00000,109.13333
2914.00000,81.02065
2916.00000,37.07193
2918.00000,119.62062
2920.00000,114.62109
2922.00000,73.00996
2924.00000,111.77028
2926.00000,160.17123
2928.00000,51.53595
2930.00000,87.37399
2932.00000,176.79079
2934.00000,113.87698
2936.00000,114.24542
2938.00000,130.64034
2940.00000,88.74142
2942.00000,69.74140
2944.00000,149.28683
2946.00000,79.79858
2948.00000,81.87315
2950.00000,138.00270
2952.00000,99.09344
2954.00000,157.64606
2956.00000,79.75625
2958.00000,108.89544
2960.00000,244.11446
2962.00000,44.83286
2964.00000,86.94025
2966.00000,152.40117
2968.00000,78.35909
2970.00000,72.47858
2972.00000,91.87352
2974.00000,81.72676
2976.00000,58.28786
2978.00000,59.84745
2980.00000,71.32349
2982.00000,37.22703
2984.00000,76.02884
2986.00000,172.80177
2988.00000,152.35950
2990.00000,72.91757
2992.00000,104.06731
2994.00000,145.03279
2996.00000,87.47943
2998.00000,130.27077
3000.00000,141.24664
3002.00000,93.79338
3004.00000,91.98166
3006.00000,151.19479
3008.00000,63.13626
3010.00000,38.61755
3012.00000,114.11246
3014.00000,118.24857
3016.00000,118.07726
3018.00000,147.64874
3020.00000,187.12953
3022.00000,197.78746
3024.00000,180.22504
3026.00000,209.76669
3028.00000,156.72943
3030.00000,70.00420
3032.00000,123.59325
3034.00000,146.72714
3036.00000,109.98693
3038.00000,131.62561
3040.00000,189.00620
3042.00000,85.09315
3044.00000,116.95784
3046.00000,183.30080
3048.00000,166.79170
3050.00000,177.37126
3052.00000,137.32030
3054.00000,140.77014
3056.00000,185.02243
3058.00000,216.91336
3060.00000,294.29605
3062.00000,211.59048
3064.00000,131.15677
3066.00000,151.54111
3068.00000,64.99852
3070.00000,50.87867
3072.00000,108.46487
3074.00000,157.21240
3076.00000,158.80954
3078.00000,115.64900
3080.00000,137.90741
3082.00000,146.67958
3084.00000,105.48891
3086.00000,164.11975
3088.00000,131.98949
3090.00000,72.01923
3092.00000,106.84541
3094.00000,182.86638
3096.00000,160.40186
3098.00000,149.52531
3100.00000,235.98669
3102.00000,277.28976
3104.00000,97.99327
3106.00000,186.53734
3108.00000,301.07748
3110.00000,217.60710
3112.00000,211.61343
3114.00000,139.64613
3116.00000,130.52631
3118.00000,246.41544
3120.00000,280.46350
3122.00000,63.95432
3124.00000,167.65715
3126.00000,232.02597
3128.00000,39.51204
3130.00000,232.44328
3132.00000,276.61847
3134.00000,141.44933
3136.00000,141.44495
3138.00000,276.19647
3140.00000,97.30177
3142.00000,163.11708
3144.00000,321.51321
3146.00000,164.03285
3148.00000,89.33960
3150.00000,220.60725
3152.00000,225.21667
3154.00000,113.03292
3156.00000,234.40623
3158.00000,261.84610
3160.00000,208.02592
3162.00000,269.60413
3164.00000,347.60919
3166.00000,88.76360
3168.00000,224.89973
3170.00000,317.48242
3172.00000,110.74477
3174.00000,292.58307
3176.00000,250.63217
3178.00000,221.66931
3180.00000,308.43799
3182.00000,252.03017
3184.00000,243.15457
3186.00000,252.13638
3188.00000,293.36560
3190.00000,334.61996
3192.00000,258.07092
3194.00000,299.24475
3196.00000,279.64044
3198.00000,200.22963
3200.00000,294.63690
